# Level force for
# start: 0.0, 0.0, 66.61270833333333
# center: 0.0, 0.0, 68.03
# end: 0.0, 0.0, 68.03
# number of nodes: 1979
# as part of NoSlip3D_structure
# time Fx Fy Fz Mx My Mz 
0.01 0.0 0.0 0.0 0.0 0.0 0.0
0.02 6.950153853009523 -0.008580247126810825 -1589.3535765422503 -0.011272531913499861 -11.74602839457664 2.2477503071398854
0.03 16.292770551553126 -0.02005403343814649 -3741.723308159319 -0.026436495840066243 -27.688532577614122 5.292053862517943
0.04 27.095690063059628 -0.03329621250792414 -6231.6916393057945 -0.0440960902917471 -46.18306449950996 8.814065124575512
0.05 38.31227561616897 -0.04698687366985688 -8812.194385207065 -0.06266036331648195 -65.42066728177436 12.464353871536686
0.060000000000000005 48.90374648706822 -0.05979281146556836 -11239.083248994617 -0.08054983325717124 -83.59503687642663 15.89761034741121
0.07 57.92934878059607 -0.0704985061525516 -13293.83634334935 -0.09632739297463999 -99.06254169233311 18.804751828135405
0.08 64.6261115785172 -0.07812759321592466 -14802.715563830257 -0.10880616215539973 -110.48494578241184 20.940010007140444
0.09 68.47285478076122 -0.08204109289813033 -15650.866798435945 -0.11712629350905956 -116.94474214619588 22.140870227841702
0.09999999999999999 69.23262524898553 -0.08200483170933204 -15790.313566473127 -0.12080653533934083 -118.0223756598106 22.339376528407954
0.10999999999999999 66.96885043218116 -0.07820683337866718 -15241.37173841848 -0.11976368578917729 -113.82663385784865 21.564142014702725
0.11999999999999998 62.032104592972395 -0.07121147033330644 -14087.63164602407 -0.11429244505391978 -104.97254747776523 19.933264745153085
0.12999999999999998 55.018202158369526 -0.061887911734967105 -12465.246575840889 -0.10504060940480109 -92.50791359803746 17.639199110989495
0.13999999999999999 46.70155911179788 -0.051294292218097226 -10547.775444665242 -0.09294648420448581 -77.79556228010875 14.927341828470087
0.15 37.951288216409836 -0.040551881854948846 -8528.201462422629 -0.07915679011000876 -62.36482798446021 12.070620186764334
0.16 29.639943337539023 -0.030724529878269458 -6599.952259434868 -0.06492641837562552 -47.75003093617407 9.342659187272943
0.17 22.555432559744588 -0.02271686000936679 -4938.764133280454 -0.05150708432260043 -35.33481337665129 6.992128784612035
0.18000000000000002 17.32608661776902 -0.01719998962491598 -3687.06712938398 -0.04003551348479917 -26.21997530769265 5.2206442283929055
0.19000000000000003 14.366325054746133 -0.014569547852459674 -2942.2453151574723 -0.031434726380151545 -21.128006658767173 4.166136131662505
0.20000000000000004 13.847559016146057 -0.014929082124262028 -2749.6880528802412 -0.026333479242125257 -20.351990566854568 3.8929972509104642
0.21000000000000005 15.695003397495359 -0.018094708105297563 -3101.045642945825 -0.025010168005835 -23.750402334149932 4.3895858716643055
0.22000000000000006 19.608982506000306 -0.02365638646401491 -3937.589831507011 -0.02740834356123134 -30.78478372256044 5.572958883840554
0.23000000000000007 25.106168364762954 -0.031003359966049082 -5158.108372640912 -0.033130019726675286 -40.59254927987663 7.30002560544643
0.24000000000000007 31.57553922676657 -0.039404189029285774 -6630.3722053995125 -0.04150236470264268 -52.085783133382435 9.383760017890262
0.25000000000000006 38.34293290517506 -0.04807904910799188 -8204.935854081272 -0.051650270154292244 -64.06543838909049 11.612720714419531
0.26000000000000006 44.73813193441596 -0.05627599194238542 -9729.88082408805 -0.06258408540679916 -75.34037343838008 13.77190961028702
0.2700000000000001 50.15870628185313 -0.06334220443571148 -11065.094108767045 -0.07329193617246155 -84.84107715826495 15.66297825105168
0.2800000000000001 54.125197798095485 -0.06877945329867607 -12094.78332642703 -0.08282293382129247 -91.71820209947992 17.121944975073237
0.2900000000000001 56.322654705294504 -0.07228739256328609 -12737.149945433448 -0.09037087464560756 -95.41734060557418 18.0328943600807
0.3000000000000001 56.62517683860686 -0.07376836378116103 -12950.450045230293 -0.09532512684273087 -95.72310605603198 18.336574135499536
0.3100000000000001 55.10091345303088 -0.07332579162805253 -12735.038105613974 -0.09732349994365563 -92.76816695265032 18.03330930890806
0.3200000000000001 51.99723495805688 -0.0712090259180318 -12131.379394449406 -0.09625010944408174 -87.00635603746974 17.180214505839302
0.3300000000000001 47.70809438940663 -0.06779645162230175 -11214.393658241985 -0.09226677231578684 -79.15339437053721 15.883210608880113
0.34000000000000014 42.72725073289774 -0.06352804898348374 -10084.824147619387 -0.08577443788530559 -70.10195542856107 14.284826672198275
0.35000000000000014 37.592917562886406 -0.058862456058752954 -8858.577577526574 -0.07738152717022473 -60.82159604625649 12.5491179574665
0.36000000000000015 32.8305801158887 -0.05423765229150046 -7655.133345904599 -0.06784379377292993 -52.2550352757917 10.845259981401227
0.37000000000000016 28.899766613185562 -0.050042904601701466 -6586.160033576858 -0.05799896608789723 -45.22265212984878 9.331421100841292
0.38000000000000017 26.150808812768684 -0.046600778767531104 -5745.405031885925 -0.04869250298277805 -40.345127499817636 8.140432282173801
0.3900000000000002 24.795448230495534 -0.04415192175349514 -5200.751231369952 -0.04069895802826551 -37.991492835841136 7.368522101856475
0.4000000000000002 24.893393529634515 -0.042854775776437926 -4989.085018535123 -0.03466075787159806 -38.25614924767835 7.0680300375758405
0.4100000000000002 26.355164552654884 -0.042775458319477266 -5114.321149002079 -0.03102586585914935 -40.96522593560216 7.244594673150686
0.4200000000000002 28.9598093145532 -0.043906595471840504 -5548.61462895273 -0.03003076948487493 -45.70954418673776 7.858858480195302
0.4300000000000002 32.384540244263476 -0.046154730880544115 -6236.489487280363 -0.0316673488646515 -51.89881865837786 8.832308533486023
0.4400000000000002 36.2428334100688 -0.0493575872356784 -7101.354792286697 -0.03569848121193786 -58.83078819598185 10.056503171571272
0.45000000000000023 40.126632317655265 -0.05329656337379696 -8053.683497168877 -0.041684712792811496 -65.7675226829002 11.404656315395219
0.46000000000000024 43.64841902735678 -0.05771042574145113 -9000.011228565869 -0.04902551881122008 -72.01131555153503 12.74438637763445
0.47000000000000025 46.479053324685694 -0.0623103100217417 -9851.877188268323 -0.05701255858356191 -76.97281825033978 13.950385065333435
0.48000000000000026 48.37788702064254 -0.06679465758562486 -10533.876274377215 -0.06489006144797571 -80.22509929458349 14.915829205837582
0.49000000000000027 49.21235121139854 -0.07086702906413755 -10990.112539765061 -0.07192163286298126 -81.53855959398294 15.561527528891745
0.5000000000000002 48.9655374442878 -0.0742470210731554 -11188.524314684339 -0.07744818879605297 -80.89394821293577 15.84205415417146
0.5100000000000002 47.731415630656535 -0.07669476817316223 -11122.773161677354 -0.08095370891212994 -78.47282646396134 15.748428253199705
0.5200000000000002 45.6987088509283 -0.07801180137615127 -10811.630201244277 -0.08209411106774311 -74.62737187976208 15.307246742353763
0.5300000000000002 43.12586345960328 -0.07808027181582666 -10296.030490207197 -0.08075136640711378 -69.8339798143604 14.576510310540844
0.5400000000000003 40.31009703048447 -0.07687161504760454 -9634.179456545951 -0.07703772483854365 -64.63628949570885 13.63868610156327
0.5500000000000003 37.55436797836106 -0.07446171270664337 -8895.26170502298 -0.07128983835800717 -59.58470621494756 12.59178903590086
0.5600000000000003 35.13590355940595 -0.07103756553714646 -8152.410893410708 -0.06404053889050765 -55.17916015158231 11.53941543595165
0.5700000000000003 33.27955207990773 -0.06689214500066853 -7475.639397329588 -0.05596983966497859 -51.821075042103296 10.580721269538174
0.5800000000000003 32.13838268231608 -0.062405742966634925 -6925.397917355314 -0.047839666113176804 -49.77892224378293 9.80129572874428
0.5900000000000003 31.783080375208 -0.058011980533028584 -6547.34334483111 -0.040416308480162755 -49.170033381146695 9.265751864943123
0.6000000000000003 32.200472124752885 -0.054159260065211434 -6368.750852805263 -0.03439717280100041 -49.959148126589334 9.012649745042971
0.6100000000000003 33.30068415934034 -0.051258726462461546 -6396.828974585515 -0.030335456529213545 -51.97260337155702 9.052120469830946
0.6200000000000003 34.93154138020445 -0.049641835341030394 -6619.004015735593 -0.02858829267115226 -54.92550112035136 9.36628058633095
0.6300000000000003 36.898213536822084 -0.049520680384512517 -7005.051054122985 -0.029281477375731058 -58.45813752964006 9.912264080053404
0.6400000000000003 38.985776116555535 -0.05095332878153602 -7510.781935247593 -0.032290066494010006 -62.177409008309574 10.627456865814306
0.6500000000000004 40.98221896092999 -0.05383524139658924 -8082.868468460004 -0.0372554590242018 -65.69870708700884 11.436335270407858
0.6600000000000004 42.699550990094764 -0.057903108674167925 -8664.293845290644 -0.043620577137506444 -68.68406074312028 12.258189555438511
0.6700000000000004 43.990987630812896 -0.06275774392370259 -9199.890958165124 -0.05068666499255059 -70.87290862039643 13.014964765923185
0.6800000000000004 44.762755605284774 -0.06790407872150617 -9641.443904699061 -0.05768609053909657 -72.10288027691686 13.638477651409422
0.6900000000000004 44.97963908543124 -0.07280292516172615 -9951.894504524922 -0.06386227378358456 -72.31906293406455 14.076361549945528
0.7000000000000004 44.66414178991944 -0.07693122370734606 -10108.300531230374 -0.06855074340658263 -71.57158901568806 14.296240083098871
0.7100000000000004 43.88987668616422 -0.07984611054520308 -10103.32550448174 -0.07125468864093243 -70.00271724457649 14.28782108854087
0.7200000000000004 42.77023151757132 -0.08122412209003294 -9945.188481015563 -0.07168378657129892 -67.82542928938958 14.062810302438178
0.7300000000000004 41.4440139586501 -0.08091682535147449 -9656.149026085219 -0.06980182067444929 -65.29667366998291 13.652755408868074
0.7400000000000004 40.05968339245771 -0.07896286339399872 -9269.739910799415 -0.06582030131278138 -62.688302191812255 13.105120871717464
0.7500000000000004 38.75998361264792 -0.07558699370412114 -8827.066416210228 -0.06017398761436432 -60.25901417782669 12.478048263383117
0.7600000000000005 37.6684710169546 -0.07117418617867877 -8372.56642367233 -0.05346868153525186 -58.23004527009604 11.834359853954513
0.7700000000000005 36.87911150610971 -0.06622544886299586 -7949.65764893665 -0.046411686576981026 -56.76670117838466 11.235408236412196
0.7800000000000005 36.44963317177357 -0.061298255821037984 -7596.689311450267 -0.03973053839736984 -55.96693687851363 10.735360974956095
0.7900000000000005 36.39895223627376 -0.05694113544577295 -7343.566544254816 -0.03409194358070522 -55.8574582863416 10.37643949696935
0.8000000000000005 36.7085286711377 -0.05362891639581946 -7209.334433629554 -0.030028506634842245 -56.39699173595105 10.185515961886015
0.8100000000000005 37.32712830977254 -0.051706655270202795 -7200.903767360447 -0.02788160011213847 -57.4856885369487 10.172322636364907
0.8200000000000005 38.17826260779964 -0.05135515971916149 -7312.983265692294 -0.027772956325991416 -58.97925768412911 10.329363596462292
0.8300000000000005 39.169380364027475 -0.05257251247773542 -7529.166915119251 -0.029597345947736997 -60.70609088468689 10.633455802661738
0.8400000000000005 40.2017529414034 -0.05517732467234371 -7824.017044909908 -0.03304058770682872 -62.485455173199185 11.048672235343004
0.8500000000000005 41.180136216366506 -0.058835851571322095 -8165.899269832122 -0.03762315412740591 -64.14506136552696 11.530343732990838
0.8600000000000005 42.02130077624777 -0.06310623171450835 -8520.265607185253 -0.04276068961323887 -65.53639063411063 12.029690678408912
0.8700000000000006 42.66074396392738 -0.06749318897921697 -8853.054965131369 -0.04783286853155566 -66.54656070469088 12.498618783611633
0.8800000000000006 43.057160995028774 -0.07150812635626735 -9133.88481359165 -0.05225446670999112 -67.1059897567695 12.89421996240102
0.8900000000000006 43.19444439017791 -0.07472554461336145 -9338.743143988511 -0.055538641939774536 -67.19149024612497 13.182568859310607
0.9000000000000006 43.08125880974167 -0.07683043852928684 -9451.950473464083 -0.05734694253645323 -66.82492092647544 13.341490989269534
0.9100000000000006 42.74847120816412 -0.07765094333892719 -9467.241224767704 -0.0575204227953936 -66.06794555453057 13.362091012206111
0.9200000000000006 42.24482849110974 -0.07717066812110573 -9387.904047333523 -0.05608687805639789 -65.01366576641894 13.248955713007025
0.9300000000000006 41.63139331564461 -0.07551958765065869 -9226.012164575945 -0.053244053706771766 -63.77610621279138 13.019074545494451
0.9400000000000006 40.975370349437206 -0.0729554311924101 -9000.859740610602 -0.049332242578939756 -62.47871532986834 12.699641162370737
0.9500000000000006 40.34379388655282 -0.06982433521387676 -8736.789849452278 -0.044785602278222925 -61.24279816070189 12.324995524460334
0.9600000000000006 39.797665895500614 -0.06651551306166503 -8460.648715839927 -0.040078163012024604 -60.17693671133342 11.933037069274878
0.9700000000000006 39.386949705021486 -0.06341381257611545 -8199.125269734826 -0.03566920446554178 -59.36814197914367 11.561472772025883
0.9800000000000006 39.146779207427585 -0.06085594157296903 -7976.233587252435 -0.031954165191841355 -58.875361858729526 11.244263045951968
0.9900000000000007 39.095119446132415 -0.05909594808829155 -7811.169914238725 -0.029226758328945834 -58.7257362567486 11.008591587195193
1.0000000000000007 39.23200786163659 -0.05828249183891465 -7716.729243682013 -0.02765470002608339 -58.913780007791374 10.87262108280061
1.0100000000000007 39.54035679005762 -0.05844985379792966 -7698.404398313755 -0.027270984274545995 -59.4034052664195 10.844209448846351
1.0200000000000007 39.98821172835845 -0.05952372526633809 -7754.219806018895 -0.0279814808295491 -60.132530611855955 10.920661962287902
1.0300000000000007 40.53224476024366 -0.06134112427111216 -7875.280185313039 -0.02958789992672628 -61.019819417622614 11.089493747365465
1.0400000000000007 41.12209513011864 -0.06367305176569715 -8046.9474753383365 -0.03181402672227662 -61.972825033668684 11.330080891210141
1.0500000000000007 41.70522978214142 -0.06625629086043361 -8250.504296655088 -0.034341601851338055 -62.89689561624315 11.616002485288902
1.0600000000000007 42.23183339521849 -0.06882522795274326 -8465.123048846666 -0.036846812878280844 -63.70396059450733 11.91781908628745
1.0700000000000007 42.65932064687727 -0.07114049713681148 -8669.939624057877 -0.039033492179148865 -64.3204562119848 12.206003868845869
1.0800000000000007 42.956064778613595 -0.07301173789425874 -8846.030535156484 -0.04066028994209958 -64.69368296686686 12.453742242067753
1.0900000000000007 43.1040198015241 -0.07431230304432646 -8978.11101661537 -0.041559361832721464 -64.7960503957197 12.63934127379693
1.1000000000000008 43.100007716976044 -0.07498597047037059 -9055.806741160755 -0.04164642981244704 -64.62685027731952 12.748039097902721
1.1100000000000008 42.955583851390614 -0.07504562850195207 -9074.399132895302 -0.040921819484150745 -64.2114581146451 12.773071481630048
1.1200000000000008 42.69549920591466 -0.07456425638937247 -9034.998904360678 -0.03946255840584456 -63.59806365231038 12.715929557841381
1.1300000000000008 42.354913422091485 -0.07365941092627004 -8944.158652274664 -0.0374065732260469 -62.852269603954255 12.585822036722409
1.1400000000000008 41.975681641893445 -0.07247873157260187 -8812.988172177682 -0.03493648655006609 -62.05017067941261 12.398431003792137
1.1500000000000008 41.6020438001068 -0.07118252846275297 -8655.880225446632 -0.03225912382354501 -61.27054950434254 12.174112457540488
1.1600000000000008 41.276183270658436 -0.06992740037809675 -8488.986407317496 -0.02958467587421154 -60.587020705331106 11.935739280674296
1.1700000000000008 41.03408681830988 -0.06885270001437682 -8328.599838739778 -0.027107940943553288 -60.06088717468096 11.706408580215896
1.1800000000000008 40.90212582358565 -0.06807025456808091 -8189.602727250719 -0.02499247651392622 -59.73542191020813 11.507237917273983
1.1900000000000008 40.89469553295455 -0.06765791999212034 -8084.123073810572 -0.02335885988184394 -59.63212607699697 11.355455752973445
1.2000000000000008 41.01314060578513 -0.06765618122772388 -8020.517953151617 -0.02227678902152519 -59.74930946565728 11.262953717746491
1.2100000000000009 41.24604307810034 -0.06806791144813928 -8002.764068622762 -0.021761754503973663 -60.0630706947384 11.235415966699113
1.2200000000000009 41.570822450597035 -0.06886158818354282 -8030.29361795186 -0.021777018571594198 -60.53053038696229 11.272080553013822
1.2300000000000009 41.95645386430388 -0.06997727175772717 -8098.269477190583 -0.0222402157330297 -61.094927301197615 11.366124955653035
1.2400000000000009 42.36696673653247 -0.07133254181471749 -8198.25218032118 -0.023031954224700613 -61.69196057492187 11.50560900886953
1.2500000000000009 42.76535203164097 -0.07282946501960907 -8319.176378019778 -0.024006853335654554 -62.25670207579868 11.674858101913276
1.260000000000001 43.11744596666472 -0.07436327391973485 -8448.529092358933 -0.025007646152376495 -62.730326576625586 11.85613433365085
1.270000000000001 43.39536850680192 -0.07583087754496809 -8573.608158303912 -0.0258796226906437 -63.06594100694671 12.031422422966788
1.280000000000001 43.580172684516626 -0.07713889523342665 -8682.737523831573 -0.026484405260026378 -63.23293903400948 12.184155268427588
1.290000000000001 43.663444194983704 -0.07821082017298941 -8766.32613532361 -0.026712007552227135 -63.219465911581636 12.300718022913895
1.300000000000001 43.64771639340197 -0.0789934041859226 -8817.677416920193 -0.026490756716789576 -63.03280086305854 12.37159832343129
1.310000000000001 43.54571061389547 -0.07946150913778283 -8833.48450094802 -0.025793860375518562 -62.69771313942215 12.392090600405488
1.320000000000001 43.37851720417138 -0.07961881923530534 -8813.979357014496 -0.02463973699819988 -62.253031471683 12.36250905294154
1.330000000000001 43.17297728885417 -0.07949822000879614 -8762.738307447402 -0.023090333796604412 -61.74690102314136 12.287913137393513
1.340000000000001 42.95857040625753 -0.07915834631471164 -8686.179028246106 -0.021243837993820236 -61.231275433661956 12.177394413715499
1.350000000000001 42.764180288113586 -0.07867890055968019 -8592.811822745049 -0.019225276988120044 -60.75629118621744 12.043015096116346
1.360000000000001 42.61508478135519 -0.07815284450795446 -8492.328247164744 -0.017173394538824382 -60.3651180422272 11.898515346717865
1.370000000000001 42.53049463998235 -0.07767729184715577 -8394.621714134017 -0.015226420785268147 -60.08982895076605 11.757924187898057
1.380000000000001 42.52187095978511 -0.07734392906500176 -8308.836588859951 -0.013508169807431969 -59.94866669168906 11.634210771163712
1.390000000000001 42.592162811017744 -0.07722987323931996 -8242.534903609916 -0.012115822734601878 -59.94492630481105 11.538102450087262
1.400000000000001 42.735995520293585 -0.07738944786447632 -8201.054298971228 -0.011110112518354143 -60.067481643534535 11.47717410407683
1.410000000000001 42.940726957056896 -0.07784804059881978 -8187.108999895454 -0.01050924472095005 -60.29279367143171 11.455282072457678
1.420000000000001 43.18821664159089 -0.07860073250613908 -8200.659942460821 -0.010289205443649863 -60.58811403796746 11.472379570302957
1.430000000000001 43.45705714828942 -0.07961216583868236 -8239.053317612548 -0.01038638309515072 -60.91544475988968 11.524712426959168
1.440000000000001 43.72501486802011 -0.08082109019442996 -8297.401263761525 -0.01070586315867672 -61.23580998640902 11.605358537718272
1.450000000000001 43.97139068413226 -0.08214665893919815 -8369.156588619717 -0.011131717731835522 -61.51334383130668 11.705041924132082
1.460000000000001 44.179067257028606 -0.08349759273383484 -8446.81740579996 -0.011540154675381942 -61.71879396374141 11.813131421843128
