# Level force for
# start: 0.0, 0.0, 12.755625
# center: 0.0, 0.0, 14.172916666666666
# end: 0.0, 0.0, 15.590208333333333
# number of nodes: 1612
# as part of NoSlip3D_structure
# time Fx Fy Fz Mx My Mz 
0.01 0.0 0.0 0.0 0.0 0.0 0.0
0.02 15.074544081513292 14.088181701112807 -138.71381336385426 -3.2887845667490136 -0.5447617640022635 1.154830438299681
0.03 35.425358802203334 33.166838501887675 -326.5656396808181 -7.742956617052249 -1.286305009057699 2.7145913581060475
0.04 59.005974942937286 55.23828440283628 -543.8816754763311 -12.895952893682356 -2.1523527896765113 4.516953289612582
0.05 83.5396247067537 78.11283188986738 -769.0989158738213 -18.23643473025463 -3.0654347355624694 6.382236151300427
0.060000000000000005 106.75385004586735 99.6265368095181 -980.9089383112589 -23.259053137373158 -3.9455247760100853 8.13309103180785
0.07 126.5750918742873 117.84250421022162 -1160.240059531207 -27.51145613341642 -4.715177480908306 9.611093984805027
0.08 141.30490463653933 131.2206524984997 -1291.929301740135 -30.633953458797492 -5.305588366406592 10.690711353104206
0.09 149.7660962634412 138.7426998554933 -1365.952957977825 -32.38872298943015 -5.663392726090581 11.28954457263162
0.09999999999999999 151.40505536329326 139.98300569451237 -1378.1241281792015 -32.67638533659672 -5.757297714574101 11.374080579998594
0.10999999999999999 146.33688945977653 135.1212152119578 -1330.2161189586136 -31.538956602487183 -5.583111201177097 10.96059646928147
0.11999999999999998 135.32408745879505 124.89778770755315 -1229.5244244887526 -29.149483412065177 -5.1657168043343695 10.111330451721631
0.12999999999999998 119.68806244008555 110.51912443643577 -1087.9317972079211 -25.789873458092917 -4.557176544825257 8.926494041481362
0.13999999999999999 101.16080778754768 93.5232962458634 -920.5853999759474 -21.819507202042807 -3.830745955251942 7.533056925403541
0.15 81.69406702593766 75.62069572440664 -744.3275160981233 -17.637991564256073 -3.0716695368576588 6.071525424768566
0.16 63.24945104043232 58.52588247981686 -576.0391832967566 -13.645837255141085 -2.366259565558625 4.68207681683838
0.17 47.595475364652664 43.79678975889193 -431.05746572196665 -10.206890246415506 -1.791117333427307 3.4913982398262613
0.18000000000000002 36.13536276366723 32.69631005722549 -321.8127576518155 -7.615988190661395 -1.4041984639088687 2.6014534377565735
0.19000000000000003 29.78369939594683 26.08818669018593 -256.8042538930126 -6.074654611628073 -1.2389418188316732 2.081124570397125
0.20000000000000004 28.901922501683778 24.375391980245595 -239.99354488954486 -5.67672075318939 -1.3019723398143617 1.9613879783710595
0.21000000000000005 33.29416736675752 27.484535878301447 -270.65235315402794 -6.4047372508043035 -1.5741864446955578 2.2342469086767034
0.22000000000000006 42.25912625285703 34.89564034224432 -343.65572048112375 -8.13694906126575 -2.0147180112047476 2.8553742555483677
0.23000000000000007 54.68567908404193 45.71202981594753 -450.17099783335914 -10.663664462244386 -2.566607964066778 3.7499819677327517
0.24000000000000007 69.18153366655618 58.76194350628696 -578.6585394111958 -13.711011089579507 -3.163629603379997 4.821264362527149
0.25000000000000006 84.22018545595066 72.72081627807209 -716.0760625839231 -16.969520486860127 -3.7374132029950253 5.9604872209896325
0.26000000000000006 98.2932113778829 86.24191565495693 -849.1653054743531 -20.124661784372634 -4.2244142906866 7.0577236038996585
0.2700000000000001 110.05505052566473 98.08294592015925 -965.6981634009361 -22.886407593201916 -4.572295735550167 8.012209424323958
0.2800000000000001 118.44812814120993 107.21700760048171 -1055.5689271372437 -25.01514452317913 -4.745303807041498 8.741380326870114
0.2900000000000001 122.79739772633395 112.91835880949087 -1111.6384653885507 -26.34170191395565 -4.728145465329796 9.187756118425817
0.3000000000000001 122.86472810584596 114.81624026922958 -1130.2632123818116 -26.77988761201325 -4.527778164369806 9.3231647521174
0.3100000000000001 118.85795782993466 112.9130725128718 -1111.4735168966188 -26.33070039662529 -4.172770438906287 9.149989596009217
0.3200000000000001 111.39245498214486 107.5668852993207 -1058.800225999525 -25.078190243513767 -3.7099182050524817 8.699451625982153
0.3300000000000001 101.41110960936894 99.44130108746084 -978.7810259629958 -23.17770878184895 -3.1985915592729484 8.02726660650994
0.34000000000000014 90.07071787349645 89.42904344731187 -880.2072560723475 -20.83800533640363 -2.7032215109294526 7.207185872822384
0.35000000000000014 78.60985770486604 78.55748824529775 -773.1936450829276 -18.299129005208872 -2.2851108709823222 6.3231482713992655
0.36000000000000015 68.21383849480542 67.88595178343903 -668.1668529883733 -15.808404673183244 -1.994719800033268 5.460927047122617
0.37000000000000016 59.89252751356982 58.404728723528386 -574.8720830887482 -13.59686663170063 -1.8655090996381443 4.699983531204818
0.38000000000000017 54.38419238938012 50.94542302615872 -501.49080544947606 -11.858339786705557 -1.9101943520807065 4.106362605461279
0.3900000000000002 52.09416968203695 46.11049256484125 -453.9476092668117 -10.733023923858202 -2.1197835178086386 3.7271979139197953
0.4000000000000002 53.072788375506974 44.227652539398846 -435.46230283191016 -10.296910407715195 -2.4654196214369275 3.587263733309367
0.4100000000000002 57.03133956298327 45.33228620588609 -446.3775269392313 -10.557739899795301 -2.9025196855077677 3.687774251539916
0.4200000000000002 63.39225128641611 49.17815043415258 -484.26441439521744 -11.457552786815938 -3.376652461926694 4.007445555226351
0.4300000000000002 71.36492840456442 55.273861562798295 -544.2828184794001 -12.881278354356127 -3.8302038516885766 4.5055848441296895
0.4400000000000002 80.03895936956991 62.94065870268355 -619.7498499710898 -14.67024918377033 -4.2091813479464175 5.12684752637389
0.45000000000000023 88.48415485134647 71.38488283062432 -702.8535237469466 -16.639147336991226 -4.469375086490611 5.807127894815535
0.46000000000000024 95.84736403086691 79.7777476457015 -785.4379812364781 -18.59463407898774 -4.581279520949373 6.479979331170998
0.47000000000000025 101.4366827855461 87.33461181705964 -859.7836766687066 -20.353845802068065 -4.533308519288976 7.082938250237916
0.48000000000000026 104.78496220876016 93.38644021364203 -919.3100546658163 -21.76103474675743 -4.33296580790989 7.563162561101654
0.49000000000000027 105.68683972263088 97.43705380312129 -959.1386948555011 -22.700890879568536 -4.005847144137686 7.881886917177026
0.5000000000000002 104.20591788036884 99.20156919996067 -976.470794257327 -23.107448998265582 -3.592491251275021 8.01733050353933
0.5100000000000002 100.65278202244632 98.62322714061276 -970.7520276522379 -22.967948949804097 -3.143468654328977 7.965873824483392
0.5200000000000002 95.53690744168863 95.86795953993747 -943.6190732469165 -22.32152471074321 -2.713180787323598 7.741471817821653
0.5300000000000002 89.49982848825911 91.29840882226313 -898.6426250366452 -21.253063799954504 -2.3532379266140566 7.37347348225425
0.5400000000000003 83.23768864827932 85.43050521769982 -840.9004593860965 -19.883060869157 -2.1061879125336738 6.903119567542781
0.5500000000000003 77.42288448451515 78.87770355284498 -776.4285659596262 -18.354591374971818 -2.000442014097249 6.379121353905159
0.5600000000000003 72.63381204052513 72.28864047518182 -711.6078103208552 -16.818775309289116 -2.047052915174067 5.852777164464904
0.5700000000000003 69.29998058818636 66.28442507401944 -652.5470937791133 -15.420174447764634 -2.238717645243545 5.373096989489817
0.5800000000000003 67.66738968087361 61.401466671908544 -604.5214414016216 -14.283507300445253 -2.55107364918244 4.982380061142717
0.5900000000000003 67.7861571958805 58.04505268292979 -571.5155192212565 -13.502869537885493 -2.9460186381294147 4.71262760035391
0.6000000000000003 69.52005890048221 56.45746648880248 -555.9105324833913 -13.134357680126346 -3.376596706523566 4.583082394970026
0.6100000000000003 72.57478722147246 56.70299508070081 -558.3371551053043 -13.192625347615582 -3.792737028291697 4.599059860721603
0.6200000000000003 76.54082764896097 58.670456570950584 -577.7001983807389 -13.651497750614881 -4.147192953601174 4.752126580170152
0.6300000000000003 80.94501893308293 62.09200685155073 -611.3644148671592 -14.448403726071469 -4.40094048246851 5.02153833116029
0.6400000000000003 85.30480535151192 66.57588063492383 -655.4761141986075 -15.492003789379059 -4.52744706094197 5.376744838326454
0.6500000000000004 89.17962629393264 71.6491563469189 -705.3838164308384 -16.672156514067904 -4.515418803061378 5.780688037173601
0.6600000000000004 92.21395090373527 76.80610954646622 -756.1137458327825 -17.87117178635662 -4.3697182229062115 6.193540422319559
0.6700000000000004 94.16806919477804 81.55734010415316 -802.8529311380233 -18.975234611559586 -4.110412570781229 6.576521470903707
0.6800000000000004 94.9341310201385 85.4750551123163 -841.3942491489036 -19.884919041787033 -3.7700911925705114 6.895437162997586
0.6900000000000004 94.53671456483167 88.23039993733865 -868.503423603066 -20.52385096421937 -3.389789947905925 7.123628646085658
0.7000000000000004 93.11906234917431 89.61970826182515 -882.1771567733186 -20.844793009259423 -3.01402758119168 7.244090245072156
0.7100000000000004 90.91765866707354 89.57774844337344 -881.7732187681202 -20.832699707410214 -2.6855551273136733 7.25060184647351
0.7200000000000004 88.22881201386703 88.17726646074247 -868.0061936674639 -20.504599822375127 -2.4404260163340155 7.1478138409681105
0.7300000000000004 85.37215317484555 85.61557611442873 -842.8155366290463 -19.906461500809456 -2.3040459238623185 6.950332005957108
0.7400000000000004 82.65509280546817 82.19000041532335 -809.1243338502935 -19.107480137428205 -2.288594258376417 6.680923962856712
0.7500000000000004 80.3421986603804 78.26504135421253 -770.5166855252696 -18.19244761945115 -2.392107678267923 6.368047936943242
0.7600000000000005 78.63229052374989 74.23476854736761 -730.8680301641393 -17.253013875368723 -2.5992645779266184 6.042959621456143
0.7700000000000005 77.64486780662682 70.48422851694743 -693.9655933829702 -16.378717452990557 -2.88370051736322 5.7366826491870615
0.7800000000000005 77.41619122525952 67.35352734748591 -663.1553170932415 -15.648645881165164 -3.2114991665752903 5.477124945237643
0.7900000000000005 77.90428774456079 65.10789799634281 -641.0474008625977 -15.124481300106993 -3.5453822388930476 5.28660572791642
0.8000000000000005 79.00125900291674 63.91628634497681 -629.3054723504879 -14.84552214430208 -3.849065024371832 5.180005806408808
0.8100000000000005 80.55081393629901 63.840045063698774 -628.5352494007137 -14.826056227045454 -4.091274212612381 5.163690376982057
0.8200000000000005 82.36859477141049 64.83234634694038 -638.2783910886534 -15.055217060078004 -4.248981223274338 5.235274661324315
0.8300000000000005 84.26313762825997 66.74781883654893 -657.1070283442814 -15.499220466660146 -4.309561930458756 5.3842215193993965
0.8400000000000005 86.054880639605 69.36101952241398 -682.8051748275602 -16.10565223933959 -4.271636790287182 5.5931752801485075
0.8500000000000005 87.59200169184933 72.39157221288477 -712.6157152123117 -16.809305570386638 -4.144638477226199 5.8398851134555
0.8600000000000005 88.76169885388431 75.53327164118102 -743.5265363333448 -17.538943884492088 -3.947194780446644 6.099509191493963
0.8700000000000006 89.49638105134416 78.48420958453649 -772.566963624334 -18.224308729039322 -3.7045766114963925 6.347066869193069
0.8800000000000006 89.77483447432334 80.9750701048258 -797.0860876536223 -18.802699204415642 -3.445550682798487 6.55980491840816
0.8900000000000006 89.6189240571108 82.79298188135068 -814.9876016013612 -19.22452520187862 -3.199026515769802 6.719256145150672
0.9000000000000006 89.08681529653775 83.79889585425023 -824.9010681130652 -19.45735915015262 -2.990894594353165 6.812809161240898
0.9100000000000006 88.26385094476612 83.9371731102722 -826.2764824677629 -19.488174676264244 -2.841398295271617 6.834658677798936
0.9200000000000006 87.2522984403825 83.23682481117001 -819.3968191884255 -19.323647445987504 -2.7633076297767296 6.786069605645933
0.9300000000000006 86.16092131406499 81.80468583609735 -805.311286497557 -18.98858121085827 -2.7610266128342893 6.674953967756787
0.9400000000000006 85.0956341617174 79.81158748412854 -785.6993043508326 -18.522693348680235 -2.8307230135085426 6.514835996333689
0.9500000000000006 84.15134369617384 77.47310286174772 -762.6814260879748 -17.976147049249835 -2.9613167465251102 6.323316892716283
0.9600000000000006 83.40562364719563 75.02701396241953 -738.5975957735416 -17.404307225344297 -3.1361850787191052 6.120214683868747
0.9700000000000006 82.91429563113095 72.7097521052783 -715.7753017385415 -16.862256063797965 -3.3353245345283433 5.925569712644853
0.9800000000000006 82.70891336885316 70.73410436267956 -696.3100699452452 -16.399598294002445 -3.5376901698375747 5.757714072288556
0.9900000000000007 82.79607725143632 69.2702335547961 -681.8784891685708 -16.056034244256963 -3.7234440458182725 5.631589513037394
1.0000000000000007 83.15842328873406 68.43165475656863 -673.5999089106339 -15.858082846193057 -3.875877357424585 5.557465692086218
1.0100000000000007 83.75715453269412 68.26724094253153 -671.9575375905326 -15.817209817917789 -3.9828402931476496 5.540166143949239
1.0200000000000007 84.53589864565024 68.75973629341202 -676.7835415099547 -15.929469772694839 -4.0375757174101725 5.578854522287999
1.0300000000000007 85.42577843110072 69.83060846441126 -687.3064346868197 -16.17662259052284 -4.03895039488493 5.667378477548921
1.0400000000000007 86.3510716663088 71.35042855598816 -702.253293808892 -16.52855039467626 -3.991075591161499 5.795105947385409
1.0500000000000007 87.23548981423734 73.15359991907144 -719.9944358340268 -16.946678575234507 -3.9024717993215177 5.948159009601811
1.0600000000000007 88.00844110547933 75.05576844753661 -738.7148503013254 -17.3880337067657 -3.7848798346014085 6.110901496510607
1.0700000000000007 88.6108688547096 76.87217347863562 -756.5948854153573 -17.80952182461227 -3.651878512974662 6.267525713368146
1.0800000000000007 89.00020033482315 78.43514864965357 -771.982657040039 -18.17201254223365 -3.517464410033778 6.403579866118207
1.0900000000000007 89.15395595905063 79.60916086379049 -783.5422766681497 -18.44385200193478 -3.394731332824584 6.5072907923854935
1.1000000000000008 89.07167030563275 80.30207859930943 -790.3650320203024 -18.603499660263402 -3.2947640252572725 6.570564122021544
1.1100000000000008 88.7748521128875 80.47179547881575 -792.0347825312163 -18.641080845866554 -3.2258176088088995 6.589580351019846
1.1200000000000008 88.30492168687196 80.12779456492427 -788.643561364752 -18.55876020660528 -3.192825390911583 6.564949241474004
1.1300000000000008 87.7191446869758 79.3277398379677 -780.7582985182265 -18.369957050989456 -3.197224133454661 6.501428499902195
1.1400000000000008 87.08511566089311 78.1696965648292 -769.3441358700458 -18.097529738642535 -3.2371075282290995 6.4072605988847275
1.1500000000000008 86.47404383553102 76.78086710625007 -755.6537078518454 -17.771154664110092 -3.3076225623306144 6.293205668123946
1.1600000000000008 85.9536338774317 75.30413130805425 -741.0945057878008 -17.42418309643165 -3.401570036546314 6.171383115001431
1.1700000000000008 85.58128067122217 73.88374544705827 -727.087960817295 -17.090301042348717 -3.5101420168391613 6.054043011069387
1.1800000000000008 85.3983084557326 72.6516048009263 -714.9340145272307 -16.800318129689288 -3.6237307087840165 5.952389037506983
1.1900000000000008 85.42590262738608 71.71534364489402 -705.693760564604 -16.57938422817483 -3.7327489333063237 5.875563463003388
1.2000000000000008 85.6631823162626 71.1493156927423 -700.1004227611448 -16.444877404212207 -3.828404161348269 5.829882414151564
1.2100000000000009 86.08766070530712 70.9891619502276 -698.5057378718479 -16.405131584555434 -3.9033811209270475 5.81838142125692
1.2200000000000009 86.65802743360423 71.23031369778376 -700.8651208509533 -16.45908395814696 -3.9523880934053413 5.840697778463095
1.2300000000000009 87.31899617989127 71.83039199530663 -706.7611335760821 -16.596830597188145 -3.972543226649732 5.893282429507304
1.2400000000000009 88.00752803370237 72.71504567159629 -715.4611872282719 -16.8009962910453 -3.9635547478832684 5.969902947693418
1.2500000000000009 88.65981840886269 73.78656480807653 -726.0023351828311 -17.048745332759694 -3.9276994233211617 6.062373372849617
1.260000000000001 89.21822068986496 74.9342791560902 -737.293812477606 -17.31421439113997 -3.8695934556520157 6.161431152222182
1.270000000000001 89.63730646503494 76.045678745637 -748.2267346505095 -17.571115270146958 -3.7957680901696698 6.257668935613285
1.280000000000001 89.88838540087104 77.01717457957893 -757.7802114364703 -17.79525209965012 -3.7140781064452284 6.342430518653245
1.290000000000001 89.96201106659372 77.76349268337765 -765.1139796852399 -17.966718202379003 -3.6329890270768317 6.408588727186974
1.300000000000001 89.86825561359497 78.22487545669874 -769.6394126489652 -18.071579316635358 -3.560803566638846 6.451138689091525
1.310000000000001 89.63478428213926 78.37151925570456 -771.0632108801459 -18.10290782639522 -3.504893375463361 6.467560508629669
1.320000000000001 89.30300900626989 78.20495251329027 -769.4009353019837 -18.061101051797714 -3.4710052983051938 6.457928978052989
1.330000000000001 88.92290349744357 77.75636738317884 -764.9605456382886 -17.953488088076682 -3.4627197127125733 6.424775558506122
1.340000000000001 88.54706457087656 77.08223306266362 -758.2989516984206 -17.793295144652028 -3.481109011709485 6.372724713451342
1.350000000000001 88.22481731469081 76.2577004304624 -750.1570012995587 -17.598101389726814 -3.524645462946175 6.307954947194146
1.360000000000001 87.99697026952697 75.3685572561658 -741.380126600495 -17.387954888271004 -3.5893637148733752 6.237539611767067
1.370000000000001 87.8918255998367 74.5025623131944 -732.8328876766584 -17.183345044845687 -3.669270772622866 6.168737108281441
1.380000000000001 87.9228304007083 73.74100695258886 -725.3158336209275 -17.003231717828275 -3.7569644218867957 6.108298976063985
1.390000000000001 88.08803720405731 73.15129893521039 -719.4924813832477 -16.86331582999816 -3.8443965396563193 6.0618593612542835
1.400000000000001 88.3713120271845 72.78122581408452 -715.8328733023569 -16.77470447083403 -3.92369971511922 6.033458722734597
1.410000000000001 88.74504577089806 72.65535834106828 -714.5782784028786 -16.743078482917213 -3.9879907956207212 6.025239985636363
1.420000000000001 89.17397415511336 72.77383879879261 -715.7293754344525 -16.76841719727028 -4.032067262381677 6.037337753822268
1.430000000000001 89.61953494860298 73.11355660281255 -719.0579062193405 -16.845279180552275 -4.052913685371706 6.067959973038665
1.440000000000001 90.04430530752607 73.6314675107561 -724.1395462146863 -16.963585990490863 -4.049975307837727 6.113648860683464
1.450000000000001 90.41591868081619 74.26966373126919 -730.4038453234152 -17.109808369669626 -4.025158861452006 6.169684003624939
1.460000000000001 90.71014008255504 74.96160963939336 -737.1956509766528 -17.26842326199992 -3.9825752354111152 6.230587128137445
1.470000000000001 90.9127879048137 75.63889585138341 -743.8416121872774 -17.423489531028782 -3.928051230566318 6.290674765670195
1.480000000000001 91.02039174827405 76.23784773248182 -749.7151891204854 -17.560186399828858 -3.8684687849838184 6.344604907669723
1.490000000000001 91.0396317091653 76.705362906268 -754.294048426474 -17.666170047474473 -3.8110088220166496 6.387866572669253
1.500000000000001 90.98574601103674 77.00345762826248 -757.2047440809912 -17.732628016601048 -3.7623867835189095 6.417168676556921
1.5100000000000011 90.88017656971081 77.11215382654642 -758.2510440554645 -17.75494571814591 -3.7281627637505963 6.43069568673727
1.5200000000000011 90.74777472157272 77.0305068323184 -757.4239906631841 -17.732940502120005 -3.7121980838478557 6.428211263739948
