# Level force for
# start: 0.0, 0.0, 32.59770833333334
# center: 0.0, 0.0, 34.015
# end: 0.0, 0.0, 35.43229166666667
# number of nodes: 2632
# as part of NoSlip3D_structure
# time Fx Fy Fz Mx My Mz 
0.01 0.0 0.0 0.0 0.0 0.0 0.0
0.02 13.888917765863495 0.8663309546415383 -27.139525942850984 -0.35995761304999374 -5.899887235213004 0.3345898803930523
0.03 32.64591919688256 2.0393429619594885 -63.892975615828306 -0.8475435445097479 -13.889920625048582 0.7864773280224234
0.04 54.3677732874005 3.3964770340137527 -106.41115240147006 -1.4116700370476576 -23.135285804671945 1.3103571487945236
0.05 76.94675465489229 4.803101987407759 -150.47521932622175 -1.9963646874199799 -32.720380156468806 1.8541672324392269
0.060000000000000005 98.28235624615476 6.126111339761846 -191.9161330491801 -2.5462866979035663 -41.739537467258536 2.3664774307244785
0.07 116.46332653090506 7.2463577314166985 -227.0024468671189 -3.0118606709041824 -49.38076240857625 2.8011160583782915
0.08 129.93132637110918 8.069102510777729 -252.76744462704858 -3.3536195948350995 -54.996787993972994 3.121079346643915
0.09 137.61508152812397 8.53170994929715 -267.2499191913422 -3.5454218325149633 -58.1579317427195 3.301433530364909
0.09999999999999999 139.02218761093974 8.607987889860617 -269.63067382672295 -3.5762981647970005 -58.68270595408498 3.3310619217542348
0.10999999999999999 134.27698538672658 8.308986251624924 -260.2566785451073 -3.4508130327866087 -56.64412984652019 3.213199529942139
0.11999999999999998 124.09690409049675 7.680211916193141 -240.55536742489554 -3.1879565669795227 -52.35193452570978 2.9647347917185423
0.12999999999999998 109.70742836456168 6.7958111585518655 -212.85172068337258 -2.8187266787333485 -46.31316239372436 2.6142906169583555
0.13999999999999999 92.70363171366787 5.750329131543539 -180.1094246016996 -2.382675332400174 -39.17565826221351 2.199180896124101
0.15 74.87441465118867 4.648925280821075 -145.62381662797804 -1.9237892239598313 -31.660550482215736 1.761498373352644
0.16 58.01107480063551 3.5970784334026398 -112.69778956072987 -1.4861307512618473 -24.49071999934342 1.3437617355875668
0.17 43.723384172094306 2.690687420973621 -84.33211639109547 -1.1096727472096455 -18.322386475522748 0.9846419961036248
0.18000000000000002 33.28455077368615 2.0075617593192714 -62.95882662363452 -0.8267227241545978 -13.686310390955072 0.7152872384293482
0.19000000000000003 27.520715014604963 1.6009943521658396 -50.240756623685975 -0.6592529520001842 -10.943803930601321 0.5566026655430228
0.20000000000000004 26.75394592848003 1.4959555701207723 -46.9529069763343 -0.617340368984578 -10.26099764581674 0.5178080516231469
0.21000000000000005 30.799524688091452 1.6880553413536565 -52.95265863773084 -0.6988061143896765 -11.602794722675387 0.596171101645718
0.22000000000000006 39.01349272522484 2.145402298182507 -67.23717229644575 -0.8900218713507874 -14.746035182286528 0.7779607865164129
0.23000000000000007 50.38040721108091 2.812837525787619 -88.07818027840361 -1.1677425776136898 -19.309526607808728 1.0403518270652716
0.24000000000000007 63.63067122672257 3.618196849292501 -113.21779941458155 -1.501742929764454 -24.797311479940465 1.3540511333056855
0.25000000000000006 77.37473575726167 4.479826959313876 -140.10417814286447 -1.8579743568095326 -30.6504793615388 1.6863535350050731
0.26000000000000006 90.24202248745816 5.314619069853105 -166.1432474189582 -2.2019275362919144 -36.30236586587381 2.0043440643554313
0.2700000000000001 101.0126643692581 6.045837686734232 -188.94253608095912 -2.5018837497134667 -41.23192622627544 2.277974511712951
0.2800000000000001 108.73074412888015 6.609980230368908 -206.52487337209016 -2.731755304789635 -45.010449997449015 2.482763897002901
0.2900000000000001 112.78844352329497 6.962086765690792 -217.4935648458929 -2.873278518714075 -47.33758818932299 2.6018793306289054
0.3000000000000001 112.97338972960131 7.079107588704417 -221.13587490472614 -2.9173684714111965 -48.06373841316215 2.627459398512646
0.3100000000000001 109.47416109849593 6.961078120596457 -217.45791944217677 -2.8645486355809053 -47.19724424871986 2.5610191452159445
0.3200000000000001 102.8434858835463 6.630033622457999 -207.15070333333753 -2.7244490217726147 -44.8962998287429 2.412912971383998
0.3300000000000001 93.92441427461205 6.126991232883981 -191.49353448257665 -2.514460686974906 -41.44699899414086 2.200930345748783
0.34000000000000014 83.74818674845582 5.5071955712383875 -172.20662699556416 -2.2577131262895374 -37.23017798485631 1.948175263092606
0.35000000000000014 73.41677005877716 4.834272719285965 -151.26907403637628 -1.9806087914657953 -32.68078615148293 1.6805286398440238
0.36000000000000015 63.98455375583905 4.1738654482514645 -130.72093362209895 -1.7101571238671793 -28.244023498134517 1.4239250802186472
0.37000000000000016 56.3518560016005 3.5873384166561526 -112.46886247008929 -1.471398113250759 -24.332660052132827 1.2018052343781345
0.38000000000000017 51.18180236712804 3.1261995936094014 -98.1134956008212 -1.2851392222405442 -21.289559363508307 1.0329747534554956
0.3900000000000002 48.847504928686774 2.827723291189111 -88.81383193528661 -1.1662111516820857 -19.35872750891692 0.9300550858083894
0.4000000000000002 49.412753913771326 2.7121097349332945 -85.19962488266397 -1.1223766872557723 -18.66719868258752 0.8986343999418083
0.4100000000000002 52.64538289390011 2.7813906018930092 -87.3376695172946 -1.1539604587373877 -19.218885192099727 0.9371419107435053
0.4200000000000002 58.05961364241535 3.0201397585971677 -94.75251246586225 -1.2541952625662005 -20.900356829830383 1.0374097784491685
0.4300000000000002 64.98071456384233 3.3977174106966705 -106.49694709848916 -1.4102149191897326 -23.497356862157837 1.1858163484994857
0.4400000000000002 72.62456426324437 3.871905658649368 -121.26327689150989 -1.6045680811688021 -26.719983481372275 1.3648797359020293
0.45000000000000023 80.18334413801242 4.393428496962278 -137.522962075471 -1.817084980204722 -30.233734898004034 1.5551292903202487
0.46000000000000024 86.90868967008487 4.91091746773699 -153.68026245965964 -2.0269053593032123 -33.69322696065994 1.737069458651923
0.47000000000000025 92.18416677171982 5.375833137327481 -168.2248879092219 -2.2144693714532995 -36.775293468727455 1.8930495784932457
0.48000000000000026 95.58020895987988 5.746910977313585 -179.86947102190092 -2.3632862798351537 -39.20838407698969 2.008866024827589
0.49000000000000027 96.88650262367928 5.993686332521991 -187.65973935319082 -2.4613249977760265 -40.79565828153519 2.0749500592526253
0.5000000000000002 96.11942443544793 6.098852346407412 -191.04834442759898 -2.501915198240222 -41.429879224431886 2.0870403535566955
0.5100000000000002 93.50509618805718 6.059268199185928 -189.92709744785503 -2.484098578230469 -41.09909132811511 2.04629947211192
0.5200000000000002 89.44119165531163 5.885531857614571 -184.61647117819533 -2.412426463888652 -39.88297531780015 1.9588878280502686
0.5300000000000002 84.44339925941773 5.600369265075478 -175.81530013705304 -2.296252695169719 -37.94070494687544 1.8350759122737141
0.5400000000000003 79.0834001867062 5.235868116450283 -164.51722553706085 -2.1486147546905894 -35.49188332717638 1.6880094831704464
0.5500000000000003 73.92595963084395 4.830004270659286 -151.9032901616004 -1.9848305517067888 -32.7927332278121 1.5322757712744912
0.5600000000000003 69.47203541105911 4.422782701689989 -139.22192859215662 -1.820956193600309 -30.11005503291495 1.3824263993707562
0.5700000000000003 66.11338486054791 4.052383375948999 -127.66827991401709 -1.6722550896090502 -27.695538035383933 1.2516014424847715
0.5800000000000003 64.10226274996162 3.751652905894593 -118.274259185995 -1.5518190483596772 -25.76283448171494 1.1503765384728704
0.5900000000000003 63.537869024079995 3.5452929530858888 -111.8192582572421 -1.4694607766980567 -24.469409815285335 1.0859255287811622
0.6000000000000003 64.36927754934092 3.447939090392328 -108.76891377728597 -1.43096532607139 -23.904625344799854 1.061554773353216
0.6100000000000003 66.41293484647468 3.4632765143833026 -109.24635415542973 -1.4377518410412131 -24.084834755125627 1.0766251450908022
0.6200000000000003 69.38178377428535 3.584261276771125 -113.0370583517204 -1.4869558627664954 -24.95559209232573 1.1268476005632417
0.6300000000000003 72.92204885679332 3.794268177656714 -119.62523118327537 -1.5719040318422377 -26.400387735678716 1.2048993632256566
0.6400000000000003 76.65342141270172 4.069138172093323 -128.2567449011832 -1.6829182871205044 -28.25474851182494 1.3012858690876512
0.6500000000000004 80.20849962636822 4.379804512693411 -138.0214574552592 -1.808358896458898 -30.324115571600228 1.4053569900776997
0.6600000000000004 83.26750752364815 4.695249462500677 -147.94624869380846 -1.9357991019819027 -32.4036209555706 1.5063704109387404
0.6700000000000004 85.58523377101275 4.985498418980738 -157.08953822384427 -2.053216617768654 -34.297816378377966 1.5945012156132052
0.6800000000000004 87.00815824063808 5.224386782082599 -164.62834837331908 -2.1500914653688703 -35.838509579833975 1.6617062739299246
0.6900000000000004 87.48089182756107 5.391830645417035 -169.93009188351368 -2.218313578733417 -36.899135172200836 1.7023692986860595
0.7000000000000004 87.04235528717797 5.475418704872989 -172.60305694085068 -2.252825299304329 -37.40449584799124 1.7136802323384743
0.7100000000000004 85.81319222665125 5.471225054135267 -172.5218367025394 -2.251951710017562 -37.33520266256572 1.695729985680765
0.7200000000000004 83.97664085610877 5.383756390492171 -169.82646991516137 -2.2174033255768375 -36.72666994037894 1.6513287828388261
0.7300000000000004 81.75553825142971 5.225150371186218 -164.89660748798934 -2.153962035129867 -35.663042937675954 1.5855859315046343
0.7400000000000004 79.38824899167284 5.013660210801939 -158.30429594143394 -2.0688970684339942 -34.26688464499843 1.5053036910073825
0.7500000000000004 77.10577879311212 4.771643059223603 -150.75084388258705 -1.971173364649975 -32.685793422389885 1.4182528303102768
0.7600000000000005 75.11204849511361 4.5232541566499425 -142.99448754202012 -1.8705360229181234 -31.077355763038465 1.3324034160485518
0.7700000000000005 73.56865425979919 4.292090993645637 -135.77613061000375 -1.776561031248614 -29.59391877601056 1.255184222016498
0.7800000000000005 72.58477547308199 4.09898480808398 -129.75027343712543 -1.6977628485739402 -28.36860657456399 1.1928334081281884
0.7900000000000005 72.21247360460757 3.9601670084580807 -125.42741551908051 -1.6408403032562355 -27.503821783463266 1.1498946767091867
0.8000000000000005 72.44712392554084 3.8859605037497396 -123.1328236805588 -1.610126320996629 -27.06317903918813 1.1288947298036158
0.8100000000000005 73.23239698334406 3.880084980903419 -122.98477124465862 -1.607284917961684 -27.06745404024611 1.130220974812175
0.8200000000000005 74.46895253494849 3.9396293113585816 -124.89335638031508 -1.6312729032516768 -27.494726586091147 1.1522000867419027
0.8300000000000005 76.02592375753137 4.055654747838545 -128.5790236373299 -1.678560924980229 -28.28451103067172 1.1913586928047075
0.8400000000000005 77.75388124818299 4.21433138131226 -133.60807066918377 -1.7435786680226515 -29.345276857574298 1.2428326466132686
0.8500000000000005 79.4983660002854 4.398492394912629 -139.44098667128094 -1.8193345222007125 -30.564513613053247 1.300881470338537
0.8600000000000005 81.11283934427816 4.5894238391375195 -145.48844167216564 -1.898142279776418 -31.820272280549634 1.3594553925040196
0.8700000000000006 82.4701286316284 4.768702099541656 -151.16928548711417 -1.972381509518668 -32.99303792859003 1.4127603184855366
0.8800000000000006 83.47168452854795 4.919922965327661 -155.96499530135608 -2.0352175971327067 -33.97681293544042 1.4557716382913886
0.8900000000000006 84.054099905248 5.030144344472932 -159.46560865448726 -2.081214840035341 -34.68841332771238 1.4846524659136162
0.9000000000000006 84.19260703489803 5.090925728094459 -161.40321484119912 -2.10678873002349 -35.07419472600118 1.4970445766884284
0.9100000000000006 83.90146314780424 5.098895518362921 -161.67043442957433 -2.1104614496352276 -35.113697965160334 1.492212345747582
0.9200000000000006 83.23129786566157 5.055807504988279 -160.3228522081653 -2.0929053222057306 -34.82001437247334 1.4710337275385865
0.9300000000000006 82.26364869482288 4.968100907857698 -157.56593216655978 -2.0567782551946663 -34.23698102344805 1.4358460831474296
0.9400000000000006 81.10323883584451 4.846075340519368 -153.72839252871768 -2.006378104193517 -33.43362290926033 1.3901688734489412
0.9500000000000006 79.86841662375217 4.702714632980706 -149.22519593203216 -1.947155891099733 -32.49647441718221 1.3383297651253803
0.9600000000000006 78.68059214741739 4.552342871215563 -144.5141582904978 -1.8851417794678262 -31.52060523799974 1.2850337217938241
0.9700000000000006 77.65348630035052 4.409220018078457 -140.05058816354384 -1.8263427237309637 -30.60025245702031 1.2349151651584083
0.9800000000000006 76.88310631269573 4.286217915355764 -136.2443473227509 -1.7761709409451973 -29.81996066442086 1.1921140682722435
0.9900000000000007 76.43934537821579 4.193693391484564 -133.42328283703216 -1.7389565126172417 -29.24704484624511 1.1599134015748451
1.0000000000000007 76.3599967916349 4.13865431878098 -131.80618588828014 -1.7175869436697233 -28.92602929349022 1.1404692881042162
1.0100000000000007 76.64777044580778 4.124272412382331 -131.4873764280714 -1.7133018790694958 -28.875499698900736 1.1346550573084742
1.0200000000000007 77.27063851546978 4.149774797330373 -132.4338088927239 -1.7256548639326872 -29.087557174656133 1.142029168044931
1.0300000000000007 78.16553347339564 4.21071768635478 -134.49436841866975 -1.7526383162933392 -29.529811160785734 1.1609258713122812
1.0400000000000007 79.244965886058 4.2995532732106785 -137.41988085183945 -1.7909508499706535 -30.14959634624133 1.1886565869619456
1.0500000000000007 80.406012651741 4.406487118082509 -140.89143315696003 -1.836374993314037 -30.879921357039265 1.2218010355038254
1.0600000000000007 81.54071721306079 4.520483404320689 -144.55391954747552 -1.88422355792758 -31.646499674556736 1.256556817683618
1.0700000000000007 82.54685982313568 4.630344347269432 -148.05139140399245 -1.9298087690264154 -32.37514595020558 1.2891134360456342
1.0800000000000007 83.33799612781705 4.725756410752662 -151.0607815923799 -1.9688883260845595 -32.99881767123609 1.3160151813184018
1.0900000000000007 83.85173368019258 4.798210240987894 -153.32089204808443 -1.998047070861038 -33.463648655784226 1.3344780074036442
1.1000000000000008 84.05540474559982 4.8417141976933555 -154.65412962136347 -2.014980989214152 -33.73344646072653 1.3426320906671667
1.1100000000000008 83.94857630360852 4.8532493459725075 -154.97928060839175 -2.0186610597586485 -33.792294861933875 1.339669297029304
1.1200000000000008 83.56216505238315 4.832929466539667 -154.3145440057601 -2.0093681009779907 -33.64510383972913 1.3258813282319002
1.1300000000000008 82.9542931888267 4.78385073171563 -152.77099901187646 -1.988600727141522 -33.31614417537206 1.3025910330242518
1.1400000000000008 82.20343550971332 4.711695180507401 -150.53759027306293 -1.95887212725568 -32.84580815272117 1.2719864128124394
1.1500000000000008 81.39960936076815 4.624078613761208 -147.8594532348362 -1.9234207163776091 -32.285984245120034 1.2368737895175643
1.1600000000000008 80.63461747793153 4.529756631299608 -145.01195863638068 -1.8858657837568369 -31.6945559757168 1.2003801604845936
1.1700000000000008 79.99243409881844 4.437748525799499 -142.27314351751144 -1.8498445001790467 -31.12959266930821 1.165634972636711
1.1800000000000008 79.54076985672233 4.356468726122092 -139.897221768732 -1.8186654971575922 -30.643803600607683 1.1354629771628733
1.1900000000000008 79.32469392791104 4.2929482123783815 -138.0916354217926 -1.7950110932174712 -30.27977378389059 1.1121189037744301
1.2000000000000008 79.3629316304645 4.252220344149258 -136.9996535350809 -1.7807145753578912 -30.06639932782678 1.0970906787157966
1.2100000000000009 79.64713243166874 4.236919262449344 -136.6899011015697 -1.776629405101773 -30.016805044139705 1.090987078837152
1.2200000000000009 80.14406617552359 4.247124243389598 -137.15347512441568 -1.7825977374565198 -30.127870319947576 1.0935173536095082
1.2300000000000009 80.80036979910489 4.280470554624197 -138.30855710937595 -1.797516637012845 -30.38133095528305 1.1035615150925802
1.2400000000000009 81.54921451245016 4.3324654216126435 -140.01171388466156 -1.8194902828802237 -30.746270645969503 1.1193202103365607
1.2500000000000009 82.3180265428888 4.397022709290544 -142.07449864863824 -1.8460491484620474 -31.18269567615939 1.138525726783433
1.260000000000001 83.03641531915862 4.467120251100656 -144.28351674021545 -1.874412457383148 -31.645798335454785 1.1586899759534588
1.270000000000001 83.64339998565057 4.535519744386766 -146.42188661071003 -1.9017669662378176 -32.090466070908455 1.177363025492625
1.280000000000001 84.0931972376781 4.595479418092715 -148.28999317298982 -1.9255344317891168 -32.47559346100531 1.1923755133172622
1.290000000000001 84.35902995585147 4.641385747447881 -149.7235984514481 -1.943603450937275 -32.76779549636186 1.2020399183961095
1.300000000000001 84.4346719922904 4.66924518054844 -150.6077179890534 -1.9545060024348264 -32.94419912978926 1.20529151522604
1.310000000000001 84.33372026402604 4.676996994304728 -150.8851504905786 -1.9575234716877068 -32.99409200132028 1.201760133110215
1.320000000000001 84.08681209716192 4.664622718485727 -150.55910634094195 -1.952717829234246 -32.91932970306726 1.1917686393009737
1.330000000000001 83.737290123774 4.634044281465785 -149.6899691457887 -1.9408872197834992 -32.73352668716234 1.176263005191553
1.340000000000001 83.33581476999683 4.588852831026585 -148.38678281789953 -1.9234538464680284 -32.46016719939309 1.1566843024791562
1.350000000000001 82.93468219884393 4.533872833321699 -146.79452338993698 -1.90229917544577 -32.12987555614695 1.1347992982820356
1.360000000000001 82.58239427098722 4.474633700962256 -145.07857118062347 -1.8795638565916537 -31.77714378845895 1.1125092113788901
1.370000000000001 82.31906556796253 4.416800966695899 -143.40799476879326 -1.8574329281866158 -31.436857890332252 1.0916570493024556
1.380000000000001 82.17306783306874 4.365621464294117 -141.93929441038438 -1.8379270937604564 -31.140963536269638 1.0738523832910323
1.390000000000001 82.15914837720587 4.32543796747305 -140.8021298456508 -1.822720017803246 -30.915580037584988 1.0603305385352453
1.400000000000001 82.27808021437174 4.299317371445545 -140.08829430529 -1.8129970044118244 -30.77881428474447 1.051856831356091
1.410000000000001 82.51773478507457 4.2888218490768875 -139.84482639078655 -1.8093653975189319 -30.739447270917086 1.0486807616700764
1.420000000000001 82.85534334789648 4.293936253043501 -140.07171563587272 -1.811825334194029 -30.79657132616577 1.050544582312411
1.430000000000001 83.26056779793367 4.3131556462261464 -140.724197341843 -1.8197984773945688 -30.94016348555565 1.0567391006474036
1.440000000000001 83.69906831955412 4.343700389290225 -141.71919356049207 -1.8322095601508557 -31.152496279788593 1.066198538295268
1.450000000000001 84.13608545084372 4.38185488581975 -142.94508929120363 -1.8476118797203869 -31.410204761982122 1.0776220332224482
1.460000000000001 84.53974941726223 4.423372222409287 -144.27374971934267 -1.864342716344872 -31.686785073827146 1.0896126437252978
1.470000000000001 84.8838088230141 4.463899697648323 -145.5735254549102 -1.8806930844395358 -31.955265911988793 1.100817302619582
1.480000000000001 85.14958566876298 4.499409542427518 -146.7219623511959 -1.8950673690980784 -32.19078505189582 1.1100493700128418
1.490000000000001 85.32706401219345 4.526562301023407 -147.61701465244474 -1.9061332342333186 -32.372845609390254 1.1163876834048252
1.500000000000001 85.41510463074457 4.542987992532563 -148.1857711191946 -1.912936261642999 -32.48704521363618 1.1192481376780954
1.5100000000000011 85.42085075018674 4.5474650797088225 -148.38998145406615 -1.9149730870579278 -32.52613944016294 1.118418356212906
