# Level force for
# start: 0.0, 0.0, 9.921041666666667
# center: 0.0, 0.0, 11.338333333333335
# end: 0.0, 0.0, 12.755625
# number of nodes: 1626
# as part of NoSlip3D_structure
# time Fx Fy Fz Mx My Mz 
0.01 0.0 0.0 0.0 0.0 0.0 0.0
0.02 14.649345866182419 -6.593173656769798 -155.87255815937178 9.97865769540513 0.20617361965723546 -1.4265158845495183
0.03 34.41985913635793 -15.522175834140112 -366.9615010404521 23.491889826559596 0.48269015282513106 -3.3548162981868312
0.04 57.331089144823565 -25.851408757164066 -611.1593431414557 39.12449020911084 0.7921302739655687 -5.584650340778726
0.05 81.17500275187003 -36.55555480980907 -864.2357354572257 55.32536232858625 1.092881786796827 -7.894910500744102
0.060000000000000005 103.74603923820705 -46.62153508494639 -1102.2464065695212 70.56171620424838 1.3483655846793638 -10.067358817865724
0.07 123.02891173252254 -55.14275491479669 -1303.7605201281474 83.4616521225312 1.5333594038815477 -11.906895275440082
0.08 137.36957846842344 -61.39863044783512 -1451.7394626554199 92.9344257935547 1.637108189051684 -13.258609874149094
0.09 145.61812783839795 -64.91305282999197 -1534.9196274369338 98.25897120885433 1.6626128377405394 -14.020260095096376
0.09999999999999999 147.23000794417413 -65.48750645162536 -1548.5962248613691 99.13408391329196 1.6226595078123935 -14.149261551645726
0.10999999999999999 142.31196780115042 -63.20677503145715 -1494.76193893003 95.68731455815477 1.5341726549007149 -13.663825912855884
0.11999999999999998 131.60304574081587 -58.41807393232945 -1381.6147202247341 88.4434697261126 1.4128234732065934 -12.638418326751406
0.12999999999999998 116.38949119179975 -51.68652363801793 -1222.5071952818353 78.25736291074627 1.2693620520948983 -11.194207754876093
0.13999999999999999 98.36030414600759 -43.73221130213474 -1034.460186159144 66.2186564750124 1.1086644389488036 -9.485628643014898
0.15 79.4204704856991 -35.35560882327078 -836.3993054680116 53.538965928472415 0.9312998942733568 -7.684465444988234
0.16 61.48501542629567 -27.358821480420325 -647.2937124878583 41.43270059650952 0.7367364205873379 -5.963044130236675
0.17 46.279715312495824 -20.470456256155344 -484.37761260543823 31.003192507026807 0.5268421061302124 -4.478141826951189
0.18000000000000002 35.17210854965343 -15.280898266126448 -361.61900833508525 23.144659403046642 0.3084595949939697 -3.3570861597032184
0.19000000000000003 29.050758362946056 -12.193681474600284 -288.5684419044687 18.468497386587075 0.09425682860382167 -2.687241619575266
0.20000000000000004 28.262573941248306 -11.39668656587694 -269.67758193637025 17.259657086123855 -0.09828553123421813 -2.50975133678822
0.21000000000000005 32.6095319704167 -12.85500471773448 -304.1281230593352 19.46569141625443 -0.24926560870814995 -2.817879768612258
0.22000000000000006 41.40039937098982 -16.324840761326133 -386.161221182747 24.717851250412355 -0.33955352066216893 -3.559911182400281
0.23000000000000007 53.545010824767395 -21.38630263812174 -505.85171377665614 32.38065866745414 -0.3535828434874144 -4.646135460597266
0.24000000000000007 67.68064059871311 -27.49095063958921 -650.2325843259351 41.62390028854683 -0.2816008246911821 -5.959019018002447
0.25000000000000006 82.31591552869553 -34.01904963434067 -804.6482928947654 51.5092716265554 -0.12096724696135297 -7.365484031339681
0.26000000000000006 95.97967817262348 -40.3407443184625 -954.2005839919733 61.08294020459559 0.12329115252408585 -8.730037547654934
0.2700000000000001 107.36231224914995 -45.875228868891774 -1085.1487659401892 69.46520091782801 0.4384283468970587 -9.927484671588559
0.2800000000000001 115.43780730976589 -50.14262450896095 -1186.1370546858216 75.92905539192168 0.8042173582276497 -10.854103663964338
0.2900000000000001 119.55588400976468 -52.80407840097785 -1249.143174659189 79.96095243046052 1.1935071260414958 -11.436256552771205
0.3000000000000001 119.49474073468613 -53.6868103786704 -1270.072786346569 81.29885189534946 1.5734017902825315 -11.635859272036566
0.3100000000000001 115.46934174284361 -52.792523730742566 -1248.9598952017814 79.94505826583678 1.9072675826562318 -11.452276844429257
0.3200000000000001 108.09292177227316 -50.28914765720352 -1189.771999366169 76.15374255783838 2.1579667404339062 -10.920678158182664
0.3300000000000001 98.29767870774582 -46.48729671142486 -1099.8553659122979 70.39541575372125 2.2918985807277394 -10.107110543029588
0.34000000000000014 87.22232607139682 -41.80452052904579 -989.0886968826596 63.302721481292664 2.2837307550611854 -9.100943454178484
0.35000000000000014 76.08156739040213 -36.72111273573389 -868.8378081371719 55.603490502463444 2.120837939191345 -8.00541972574229
0.36000000000000015 66.0330215623378 -31.732076487512558 -750.8190712529898 48.04794205241433 1.806583278338378 -6.927394386234987
0.37000000000000016 58.05722620372281 -27.30002029729109 -645.9831542874847 41.33719770606084 1.3617289933493293 -5.967118970808457
0.38000000000000017 52.86380517754184 -23.813306455923858 -563.5236129839275 36.05979319853096 0.8234710150250244 -5.209140670416295
0.3900000000000002 50.832414679976054 -21.553156196230944 -510.0980019531966 32.64181212673675 0.2421417550739644 -4.7150905630982525
0.4000000000000002 51.99278707204659 -20.672438965168826 -489.32455623363165 31.31467036245265 -0.32408956581823745 -4.518955948438116
0.4100000000000002 56.04238314166718 -21.187506190268955 -501.5884687543523 32.10273656073025 -0.8156591647164806 -4.625184434793631
0.4200000000000002 62.397725131797785 -22.9831714159935 -544.1605946451854 34.8309631341187 -1.178471041863494 -5.009643671463618
0.4300000000000002 70.2706440598112 -25.829858522679984 -611.6022256600974 39.15083373056571 -1.3701032672504745 -5.62323563059914
0.4400000000000002 78.76117893920086 -29.410528493663904 -696.4039338204147 44.58130181483523 -1.364832720137688 -6.397670742584165
0.45000000000000023 86.95659943415669 -33.354536083140374 -789.7874801607235 50.56016343068549 -1.156884269301477 -7.252767509544782
0.46000000000000024 94.0266169876391 -37.27488059258948 -882.5881581091771 56.50057377765529 -0.7616186298502399 -8.104523984500307
0.47000000000000025 99.30557439434865 -40.805223917971304 -966.1314827902729 61.84719221944739 -0.21456154474692468 -8.873170696306822
0.48000000000000026 102.35369137500747 -43.6331834381631 -1033.0227927990252 66.12674354488196 0.4316867997921001 -9.490456763176173
0.49000000000000027 102.99182254257106 -45.527061391985804 -1077.780060967286 68.9885225836039 1.1124077643169734 -9.905524998487987
0.5000000000000002 101.30645572117385 -46.35372626317518 -1097.258088359825 70.23153196982452 1.757269075309381 -10.08889792082618
0.5100000000000002 97.62585824946873 -46.086431744851794 -1090.8337740606416 69.81630638615572 2.297695221634388 -10.034271714953746
0.5200000000000002 92.47048146073774 -44.80236966400715 -1060.346053539979 67.86101583712798 2.674470026209736 -9.758057666189345
0.5300000000000002 86.48516807198955 -42.67042788774087 -1009.8071401847437 64.62293017246776 2.8445494055116143 -9.29679093592479
0.5400000000000003 80.36133857656695 -39.931068051979956 -944.9228032817534 60.46764892962628 2.786322178933208 -8.702756367242475
0.5500000000000003 74.75893811015504 -36.87034267620231 -872.4756202057961 55.829573878741456 2.5025472300468294 -8.038319077724296
0.5600000000000003 70.23717963694646 -33.79085533083865 -799.6357781132629 51.16775897374142 2.0205019176927674 -7.369554137744357
0.5700000000000003 67.20129744033632 -30.98252843833681 -733.2679313383251 46.921529389274156 1.3892601712478996 -6.759817569360202
0.5800000000000003 65.87010506357794 -28.695983907444052 -679.2997707216258 43.4700710151225 0.6743883122190333 -6.263876554753351
0.5900000000000003 66.26611900525594 -27.120849108611008 -642.2090591148296 41.09962788513865 -0.049266669979662225 -5.923134618090007
0.6000000000000003 68.22771659902021 -26.37086871360753 -624.6717741706962 39.981025413133146 -0.7058726402038005 -5.762349692787252
0.6100000000000003 71.43981384631412 -26.476856872583088 -627.3968222101578 40.159148212726734 -1.2269252249016436 -5.788094137905329
0.6200000000000003 75.47875941022409 -27.387718012260407 -649.153730235216 41.55477678725036 -1.558712475940526 -5.98900757967759
0.6300000000000003 79.86527088595915 -28.979236749998137 -686.9814142192926 43.978000541523194 -1.6680445829544457 -6.337737133847963
0.6400000000000003 84.11927665091378 -31.069178468485504 -736.5495639374354 47.151400502377 -1.5456593324388983 -6.7943003620258065
0.6500000000000004 87.81109238848813 -33.437174996264915 -792.6313213772546 50.74033243984946 -1.2070401510764874 -7.310470950035786
0.6600000000000004 90.60342623791647 -35.847233761239735 -849.6375933859466 54.38713660125114 -0.6905341929949547 -7.834735258613538
0.6700000000000004 92.28043706671782 -38.07065081792971 -902.1599190023262 57.7458732150555 -0.05302483770932653 -8.31731863254957
0.6800000000000004 92.76148364094522 -39.90713576486883 -945.4705805879626 60.51430292239747 0.6363724441905454 -8.714803158978203
0.6900000000000004 92.09906581855532 -41.202291186494634 -975.935020867836 62.460236768060085 1.3039008993196077 -8.993922044358346
0.7000000000000004 90.46234220127609 -41.85996984147545 -991.3019276654046 63.44004508894036 1.8791968820903975 -9.134208735123952
0.7100000000000004 88.10914911751797 -41.84855883054816 -990.8494380580505 63.407955766991506 2.302878367869738 -9.129306810305838
0.7200000000000004 85.35042390433333 -41.200932000387304 -975.3803820099595 62.415695351969255 2.532870939591671 -8.98688135333446
0.7300000000000004 82.51223963628567 -40.00830097441997 -947.0740299795223 60.602957963562176 2.548661697036124 -8.727206904082735
0.7400000000000004 79.89958727328403 -38.40888218216884 -909.2150216192122 58.180031959839944 2.3531019022723196 -8.380627597310081
0.7500000000000004 77.76600221717956 -36.57265823702518 -865.8308419619885 55.404594173143934 1.9715538775109653 -7.984193365866616
0.7600000000000005 76.29180617125053 -34.68385467344595 -821.2764108367799 52.555140400465454 1.4485476872108194 -7.577829190279553
0.7700000000000005 75.5724659791244 -32.922876422507 -779.8075693177942 49.90372396059459 0.8423968354781568 -7.200422339574381
0.7800000000000005 75.61719703961614 -31.449483120914966 -745.1843166355469 47.69060818760003 0.21845487946514197 -6.8862060073535964
0.7900000000000005 76.35679408484545 -30.38869428698548 -720.3399076866802 46.103140021823506 -0.3581711684601352 -6.661763690908826
0.8000000000000005 77.6587588427892 -29.820637225141272 -707.143925301144 45.26063635884581 -0.8296053488900181 -6.543907179311631
0.8100000000000005 79.34735162504727 -29.775131590658816 -706.2771525308281 45.206415704069926 -1.1511354449829483 -6.5385814915834235
0.8200000000000005 81.22585787199728 -30.231259500698354 -717.224650049815 45.907383405332084 -1.2954775430883423 -6.640847231998203
0.8300000000000005 83.09872449484284 -31.121766697135204 -738.3819712081013 47.26083837205767 -1.2550189752992704 -6.835885633728223
0.8400000000000005 84.79083782426265 -32.341614582723146 -767.2590127594364 49.107515236565874 -1.0418060860570986 -7.1008846948517
0.8500000000000005 86.16274167788818 -33.75969139538096 -800.7575581702248 51.249326354748895 -0.6854626224001841 -7.407577521575167
0.8600000000000005 87.12047405582871 -35.23243160901196 -835.4928108590741 53.46990787144949 -0.22931321995607057 -7.725165893106507
0.8700000000000006 87.61966057490379 -36.61797989870274 -868.12651049841 55.555899834967384 0.27478850206135697 -8.023337750239211
0.8800000000000006 87.66415414037749 -37.78950147856543 -895.6797019672316 57.316924927678215 0.7723133067334 -8.27508924263898
0.8900000000000006 87.30006568397222 -38.646454472652856 -915.7966358052281 58.602443452473146 1.211926105612747 -8.459099315892132
0.9000000000000006 86.60646275795688 -39.122847420470464 -926.9372328636406 59.314045077280774 1.5507283178410063 -8.561455434425383
0.9100000000000006 85.684132699533 -39.19182632836068 -928.4833556931248 59.412237076899814 1.7583404551760218 -8.576601765650183
0.9200000000000006 84.6438568974978 -38.866350952469986 -920.7529146873908 58.917345880809506 1.8194335483129542 -8.507458487322737
0.9300000000000006 83.59528460260893 -38.19607589660852 -904.9248724076543 57.904728861206046 1.7345431043155983 -8.364741769058645
0.9400000000000006 82.63775487086737 -37.260872731781475 -882.8863935934802 56.495012662121354 1.519101731701424 -8.165579420925914
0.9500000000000006 81.85308734505801 -36.16184029232546 -857.0203773251181 54.84051993839641 1.2009957846578114 -7.931595234977632
0.9600000000000006 81.30087988573209 -35.01070170711115 -829.9562798469976 53.10934983140838 0.8169517235740766 -7.686659628233274
0.9700000000000006 81.01618051645613 -33.91871400046062 -804.3095816727908 51.468728037130994 0.4082300439288602 -7.454535012935423
0.9800000000000006 81.00927905298764 -32.986153845117016 -782.435119723339 50.06923850078612 0.016134994346245435 -7.25664222998841
0.9900000000000007 81.26728433994614 -32.29335237968982 -766.2169747398955 49.0313867694905 -0.32217608747247617 -7.110152128222827
1.0000000000000007 81.7570805046654 -31.894049668875567 -756.9130529142102 48.43565590047609 -0.5771634441407762 -7.02656743338602
1.0100000000000007 82.42933751663894 -31.811599917380242 -755.0664158309257 48.316826065879575 -0.729359502204284 -7.0109050293300506
1.0200000000000007 83.2232166609944 -32.03823382783728 -760.4885299905884 48.66289202490482 -0.7706292578019323 -7.0615281123463145
1.0300000000000007 84.07161046164627 -32.53729322559569 -772.3125122885589 49.418456733215834 -0.7042270019914607 -7.170613415622235
1.0400000000000007 84.90628481998928 -33.24812641557715 -789.1079891658204 50.492066962396045 -0.543678054529467 -7.3251847092112214
1.0500000000000007 85.66307723978716 -34.09297479014685 -809.0436691829099 51.766606071933566 -0.3107623515682434 -7.508582109476862
1.0600000000000007 86.28664873169056 -34.98517212770297 -830.0799837108455 53.11161266029809 -0.03283358406356385 -7.702212863815726
1.0700000000000007 86.73456791135906 -35.83777923363108 -850.1721281480828 54.39626983964186 0.26020046179271894 -7.887403978985406
1.0800000000000007 86.98046685644341 -36.57182702426663 -867.4638038379518 55.50180347596887 0.5389121509549142 -8.047176190126311
1.0900000000000007 87.01601073374648 -37.12340535833075 -880.4537891226987 56.332145138003916 0.7771100657205654 -8.16777472729137
1.1000000000000008 86.85150111915657 -37.44898698133433 -888.1208804856354 56.82193275502752 0.9540721759368882 -8.239822069369387
1.1100000000000008 86.51495241527388 -37.528558015005736 -889.9973853809921 56.94122006495432 1.056096134334462 -8.259000903563656
1.1200000000000008 86.04964861921901 -37.366374798989824 -886.1866608544998 56.69660407334941 1.077276238354905 -8.22622380137225
1.1300000000000008 85.5101936809438 -36.98939613188128 -877.325727377921 56.128836150414784 1.019522104598387 -8.147297442529394
1.1400000000000008 84.95757920683653 -36.44361146794195 -864.4990993543894 55.3073097682354 0.8918402409991835 -8.0321344570329
1.1500000000000008 84.45340185827753 -35.78877848300255 -849.1143722343522 54.32209702365257 0.7090550492941166 -7.893613301321224
1.1600000000000008 84.05390971572723 -35.092086613751334 -832.753178513179 53.274408912659275 0.4901056035352944 -7.746209452156217
1.1700000000000008 83.80445715443776 -34.42142967479674 -817.0128356060791 52.266458618480726 0.2561040149498961 -7.604540089279816
1.1800000000000008 83.73496096860774 -33.83893531320549 -803.3541583080189 51.391719675012475 0.02834077682287628 -7.481965944821965
1.1900000000000008 83.85688884314875 -33.39535420841761 -792.9695760794258 50.726484544866416 -0.1735940173039019 -7.389381148680986
1.2000000000000008 84.16213507696007 -33.12579624485252 -786.6830916327783 50.32346281870773 -0.3334240808462301 -7.334297926679113
1.2100000000000009 84.62398004020312 -33.047160742470616 -784.8900233408325 50.207926764261444 -0.43942769127588654 -7.320298604963941
1.2200000000000009 85.20004379106604 -33.1574160279941 -787.5403289728442 50.376647676642314 -0.4852255901049194 -7.34688881823201
1.2300000000000009 85.83699911007845 -33.43669736217135 -794.1649704970857 50.799587670829226 -0.4700920932406838 -7.409746886578658
1.2400000000000009 86.47638206677472 -33.850074182631054 -803.9407528654361 51.424052251150385 -0.39876296983815607 -7.501323818946757
1.2500000000000009 87.06096730027357 -34.35158217468302 -815.7856036640178 52.1807920146027 -0.2808007277004769 -7.6117219082006216
1.260000000000001 87.54094882304031 -34.889121739576325 -828.4737981924287 52.99137807475168 -0.12957899685288687 -7.729751111092618
1.270000000000001 87.87920782480653 -35.40970487505885 -840.75923138039 53.77609025223211 0.03902127660269805 -7.844055454017422
1.280000000000001 88.05506139033402 -35.86452995139798 -851.4946631474255 54.461545787079224 0.20809243923933352 -7.944198873222831
1.290000000000001 88.06608398804467 -36.213414893042625 -859.7358167275097 54.98735687159763 0.3612309863142329 -8.021609262519096
1.300000000000001 87.92783611848245 -36.4281992441061 -864.821178955699 55.31123191800512 0.48398759208581055 -8.070298222096438
1.310000000000001 87.67156037665575 -36.49483567299072 -866.4211030938792 55.412112276753675 0.5651176391105075 -8.087299988562554
1.320000000000001 87.34014204578196 -36.41404075820811 -864.5530224009063 55.291140832747466 0.5975292863905448 -8.072802661248009
1.330000000000001 86.98291820854818 -36.200516917795845 -859.5629581710472 54.97047435473634 0.5788364286317815 -8.029972692901296
1.340000000000001 86.6499085286393 -35.88086115954625 -852.0766985909339 54.490158406802536 0.5114805344554405 -7.964508629295896
1.350000000000001 86.38623843071952 -35.49046446863447 -842.9267462204901 53.90345205148708 0.4023986197998983 -7.883974781762502
1.360000000000001 86.22732865533169 -35.06971549506838 -833.0631468526656 53.271123932038066 0.2622812836404478 -7.796993127694417
1.370000000000001 86.19541650040449 -34.659911310078485 -823.4574586694695 52.65531109907904 0.10448523938244669 -7.7123748157884755
1.380000000000001 86.2977546771659 -34.29928366833571 -815.0093235664428 52.11354510194061 -0.05629574008618832 -7.638276435846564
1.390000000000001 86.52661116759286 -34.01951070396726 -808.4644064415613 51.69350578666584 -0.20547136426818113 -7.581459698959485
1.400000000000001 86.860964963857 -33.84302202604517 -804.3509634911082 51.42896680736262 -0.32996357056680736 -7.5467194567241584
1.410000000000001 87.26961847832655 -33.78131900696145 -802.9401697101325 51.33726025178 -0.4194474641841843 -7.536525561221824
1.420000000000001 87.7152994028398 -33.83441600754591 -804.232833830985 51.41842829915237 -0.4673048525669241 -7.5509016173159615
1.430000000000001 88.15915745379039 -33.9913976520034 -807.9724879825474 51.656061553839024 -0.47118715858734284 -7.587542394594369
1.440000000000001 88.56518750543587 -34.232002935617224 -813.6823222357658 52.01966048792937 -0.4331487995749175 -7.642143708279969
1.450000000000001 88.90398050836289 -34.529006236017175 -820.7213026689795 52.468224645610064 -0.35932682045024933 -7.708908076788649
1.460000000000001 89.15549598542682 -34.85114971947537 -828.3531947347024 52.95466629239785 -0.25922057229924533 -7.7811660647126395
1.470000000000001 89.31057137984497 -35.166317442908465 -835.8212982507403 53.430589215734386 -0.14464568021687185 -7.852050858307393
1.480000000000001 89.37109382977513 -35.44463322933536 -842.4215048989345 53.85096060864544 -0.02847677378552227 -7.91515961474316
1.490000000000001 89.34892611055051 -35.66119396623438 -847.5668006572126 54.178236104938364 0.07668496368658317 -7.965139425597545
1.500000000000001 89.26382380603489 -35.79819674894675 -850.837481056133 54.385571329221825 0.15977670565421676 -7.998145801111923
1.5100000000000011 89.14065865265428 -35.84628446238086 -852.0129887807578 54.45885852512762 0.21234295391248814 -8.012136246638462
