# Level force for
# start: 0.0, 0.0, 60.94354166666667
# center: 0.0, 0.0, 62.36083333333333
# end: 0.0, 0.0, 63.778125
# number of nodes: 2048
# as part of NoSlip3D_structure
# time Fx Fy Fz Mx My Mz 
0.01 0.0 0.0 0.0 0.0 0.0 0.0
0.02 5.317386377089241 0.17098322570089053 112.73332099427964 0.45536335055979227 9.760691199119897 1.8739763491064763
0.03 12.457507774799385 0.4028532834259875 265.4016217703074 1.0722653586475128 22.979304645628826 4.4131867662031965
0.04 20.737907124070702 0.6711472010559949 442.01591505111423 1.7860419100807388 38.27461501483677 7.350592873940043
0.05 29.387912013694937 0.9491801430251954 625.0518647003813 2.525902533564606 54.13338662300908 10.394608386004297
0.060000000000000005 37.629788386106476 1.2105400687804533 797.1919447353562 3.2218685707596872 69.05860228095489 13.257164543556565
0.07 44.73720503238923 1.4315740858093635 942.9362869569661 3.8112890137822344 81.70749207056734 15.68051861838134
0.08 50.09404853090429 1.593479291130608 1049.9615211132623 4.244332386702402 91.00883701621441 17.459853268514273
0.09 53.251014412825654 1.6838518565520495 1110.1209255195815 4.4880292186339314 96.25052953077461 18.459873810134034
0.09999999999999999 53.97304108929253 1.6975420874998157 1120.0114510479268 4.5285628579969615 97.13061192980282 18.624178061359814
0.10999999999999999 52.26922782760185 1.636819183840183 1081.074097917863 4.371682736782793 93.76829997469213 17.97684483160421
0.11999999999999998 48.39654008449256 1.5108508926870723 999.2380274108347 4.041269867893851 86.67502355684562 16.616459954771187
0.12999999999999998 42.833902769322236 1.334497659611734 884.1607909759583 3.5762785839952045 76.68950970874845 14.703446720989419
0.13999999999999999 36.22751778733628 1.1266610226946394 748.1531943788847 3.026404064000346 64.8842815268009 12.44219691961947
0.15 29.314336567530518 0.9083116277554195 604.9038328158911 2.446937870420462 52.453672772778276 10.059917194183186
0.16 22.83512457462821 0.7004131417435913 468.13278523057073 1.893335633159353 40.595065526797285 7.784323924120344
0.17 17.449619504447448 0.5219443611724914 350.30519323188776 1.4160176173173227 30.395238508856373 5.822353117285196
0.18000000000000002 13.666119684081988 0.38820756385748867 261.523657554675 1.0558881913419786 22.73274277312674 4.34182288410018
0.19000000000000003 11.793818607274098 0.3095642010475419 208.69552823901088 0.840961845209347 18.204968081590234 3.4576404149116104
0.20000000000000004 11.922001069893138 0.29071376077911393 195.04004548346813 0.7843591131881176 17.085625173818666 3.2236006507371338
0.21000000000000005 13.925071146768351 0.3305536568093266 219.9646547218269 0.8837899774137359 19.314964703697157 3.6303076524156292
0.22000000000000006 17.49039557628129 0.42247945066272363 279.30339640152164 1.1225092491126571 24.521880176618954 4.609062740917183
0.23000000000000007 22.161852700495807 0.5553653293460865 365.876927173511 1.4715671369751857 32.07395221123335 6.041105610677389
0.24000000000000007 27.39390582118841 0.7147734960694834 470.30592047150157 1.8930914574519653 41.14929944186875 7.771060819338397
0.25000000000000006 32.61006816833688 0.8844722856145566 581.9899658590255 2.3442413474628774 50.822478320423244 9.62315046806005
0.26000000000000006 37.261151305463514 1.0480419016548774 690.1533490713374 2.781434595160631 60.15588182761187 11.418534297646897
0.2700000000000001 40.87934372301046 1.1904239368528762 784.8578471216514 3.1644483354351145 68.28806581233133 12.992111182157544
0.2800000000000001 43.123697826755816 1.2992758766966546 857.8904435090086 3.4600119703074004 74.51101418323763 14.20724808824191
0.2900000000000001 43.812991370912734 1.3659830845066736 903.4494538693009 3.64459155647217 78.32968101497329 14.967192942542322
0.3000000000000001 42.94217370445816 1.386319391948362 918.5744041727158 3.706135595295372 79.4989811049461 15.222224100675636
0.3100000000000001 40.679625623557634 1.3605944407499768 903.290956903079 3.6446700239607726 78.03558074355554 14.972095595185431
0.3200000000000001 37.34422786489536 1.293480066343891 860.4698868130548 3.471731376725579 74.20432942633204 14.263761153291897
0.3300000000000001 33.36519381830217 1.193254921564705 795.4257866212879 3.208752172927687 68.48165535014712 13.184781514009646
0.34000000000000014 29.228498310563065 1.0709001692781568 715.304801814511 2.8845840322261598 61.500349226429265 11.853249435036478
0.35000000000000014 25.417803807550964 0.93891999164941 628.3284362499755 2.5324466685845204 53.98193723459699 10.405332637771362
0.36000000000000015 22.35744398573651 0.8100836624172398 542.9713648092966 2.186598930062347 46.66373193673829 8.981666530710672
0.37000000000000016 20.364990919508852 0.6962216982365295 467.1539850670067 1.879077998511181 40.22792140004822 7.713999013710084
0.38000000000000017 19.619179361575352 0.6071627300796676 407.52530848387715 1.6367992027895815 35.23944773853055 6.713272317700212
0.3900000000000002 20.146307581190896 0.5499379585074653 368.8995972861436 1.479278906031805 32.09822442004946 6.060216135771324
0.4000000000000002 21.82532294740679 0.5282474071268712 353.8924332448363 1.4171601703470071 31.00947356811605 5.799219683435352
0.4100000000000002 24.40955310879076 0.5423179507327873 362.7807224868315 1.4516426334545223 31.974066397543663 5.935897237336759
0.4200000000000002 27.561512512583008 0.5890037276909874 393.58873852610236 1.5748276300642043 34.798701696501865 6.438392280610318
0.4300000000000002 30.89530441639328 0.6623076788114393 442.381072711735 1.7708926991104326 39.123873829341825 7.242136075864046
0.4400000000000002 34.02234173472598 0.7540610298733768 503.7248714604022 2.017955268351864 44.466127779436555 8.257426344961905
0.45000000000000023 36.59500114527556 0.854789418885253 571.2699998691563 2.290410060781344 50.26987537788183 9.378999062947777
0.46000000000000024 38.344001372233706 0.9546607977597477 638.3873357621055 2.561501875040139 55.96346731537776 10.496600892320672
0.47000000000000025 39.10586206954433 1.044415051660934 698.8029285861712 2.8058818102632674 61.0140507663035 11.505531952334747
0.48000000000000026 38.8378912881902 1.1161932400372825 747.1690841509754 3.001911380246077 64.97612303880004 12.316174682851177
0.49000000000000027 37.618956712314294 1.1641781308971835 779.5220307619273 3.1335080518514804 67.52944948796542 12.861678270503319
0.5000000000000002 35.63623036672176 1.185043737751288 793.5885995668702 3.1913857421993415 68.50327132864052 13.103158870926109
0.5100000000000002 33.15948631581822 1.1781063026285077 788.920088180531 3.173601128688194 67.88510068688822 13.032047257076195
0.5200000000000002 30.50592915506527 1.1453102175636527 766.8486301500363 3.0853843864608432 65.81398496353353 12.669497965209384
0.5300000000000002 28.000685523490787 1.0908622964091013 730.2781461957799 2.938313137859206 62.55966987616776 12.063027953215816
0.5400000000000003 25.937377631835353 1.020765104691578 683.3371842193935 2.7489257613532123 58.490313176678384 11.280843891588512
0.5500000000000003 24.544262608008452 0.9421835005126802 630.9326595884651 2.5369387588270467 54.03247572955633 10.404478033620803
0.5600000000000003 23.959900907961405 0.8627344464113404 578.2512349174841 2.3232503970614466 49.627617705788566 9.520506539932576
0.5700000000000003 24.220974860980718 0.7897693267433263 530.2578968677573 2.1279282802332373 45.68945791538518 8.712171495549164
0.5800000000000003 25.262975978349807 0.7297114847625643 491.2392575630064 1.9683686128601972 42.56620882575421 8.051706140779508
0.5900000000000003 26.933044566418623 0.6875180069650786 464.43258019293904 1.8577942628643243 40.51104123201671 7.594049248301449
0.6000000000000003 29.012463445960634 0.6662742804319386 451.771434605451 1.8042132337395396 39.66310108303573 7.372485023023288
0.6100000000000003 31.245554938048713 0.6670086537166342 453.76632041099765 1.809915038711079 40.040321872994554 7.396525853142931
0.6200000000000003 33.37131129197847 0.6886662657173082 469.52493911584736 1.8715263499141646 41.544063422133775 7.652130618305719
0.6300000000000003 35.1538468070134 0.7282930072386229 496.9034032946658 1.9805931321355859 43.97450167479822 8.104131491186884
0.6400000000000003 36.40838589790144 0.7814046175581906 532.7678396708615 2.1246101124402808 47.054757982684855 8.700532760541385
0.6500000000000004 37.02015903798187 0.8424454163766164 573.3364562337936 2.288380566734208 50.46102527152806 9.378190792249406
0.6600000000000004 36.95432441320243 0.9053470710702998 614.5661286012493 2.455563817362644 53.85554600411171 10.06927794049098
0.6700000000000004 36.25619763649078 0.964110056007268 652.5451145973101 2.610257824461332 56.919181557104814 10.707887439554254
0.6800000000000004 35.04220786685038 1.0133557187519813 683.854760352399 2.738469147481344 59.38053013167058 11.23615026750711
0.6900000000000004 33.4828759470624 1.0488062804707798 705.8677181903684 2.829337500713013 61.03901414467329 11.609315155800044
0.7000000000000004 31.780163551484385 1.06764174447067 716.9576322683813 2.8760118535514625 61.780072035506905 11.799360339215898
0.7100000000000004 30.142254690758243 1.0687015601579608 716.6046886485396 2.876113633862251 61.58145216556573 11.796858407996904
0.7200000000000004 28.758676994369182 1.0525807574542876 705.3919862911071 2.8317565390572277 60.51046472948927 11.611005588598463
0.7300000000000004 27.779254035222102 1.0214659608006276 684.898040923372 2.749147877070876 58.712964304909015 11.267881575145811
0.7400000000000004 27.29884826153934 0.9788944118244656 657.5005363148117 2.6378180130134252 56.39552156489661 10.807196617522354
0.7500000000000004 27.349646810346446 0.9293650275564396 626.1139204124819 2.5095713801993833 53.80284220630261 10.277896342849862
0.7600000000000005 27.901380324245523 0.8778746669463908 593.8888011071481 2.3772686334391624 51.19280836808514 9.73309504374714
0.7700000000000005 28.8689367461469 0.8294143629741075 563.9033646540461 2.2535629884109323 48.81161067757913 9.224848860421353
0.7800000000000005 30.125762331130957 0.7884865895446049 538.8763997531504 2.1497112755978645 46.8712796936985 8.799277670616227
0.7900000000000005 31.521114440577822 0.7586829901298087 520.9280254229219 2.0745707830123887 45.53159689085589 8.492479497210539
0.8000000000000005 32.898810823329015 0.742370788280315 511.40845310028226 2.0338691111418337 44.887839524701526 8.327588828567194
0.8100000000000005 34.11513289324198 0.7405140997449635 510.80768497156777 2.0298033371357915 44.96518378606817 8.313206413751955
0.8200000000000005 35.05400637710896 0.7526184690200113 518.7507274086707 2.060993053316306 45.71994551888934 8.443280994977226
0.8300000000000005 35.63795263053002 0.7768470698019261 534.0746793191489 2.122777018909697 47.04719563696682 8.698382713830464
0.8400000000000005 35.8337994591023 0.8102591583548664 554.9763976702837 2.207806545634879 48.7936884190494 9.048187027121585
0.8500000000000005 35.65309380348984 0.8491446163715297 579.2134469356201 2.3068693396042868 50.7746470831067 9.45486800278487
0.8600000000000005 35.14747569811414 0.8894220095681797 604.3368115923761 2.409852848298085 52.79263315916743 9.877040488178341
0.8700000000000006 34.399901583607196 0.9270620466022041 627.9319261857206 2.506749038812689 54.656637980092945 10.273851413307934
0.8800000000000006 33.51313151598404 0.9584845105634896 647.8449012124113 2.5886037178132426 56.199617952511545 10.608822480044553
0.8900000000000006 32.596924872850124 0.9808954191713859 662.3733325425719 2.6483209792264466 57.29291388439243 10.85309479718007
0.9000000000000006 31.755539000696615 0.9925258291467012 670.4053768937126 2.6812522044588967 57.85637095467727 10.987795963941583
0.9100000000000006 31.076986853189055 0.9927542729817151 671.4964152794842 2.6855237288441174 57.86344160195231 11.005344640031009
0.9200000000000006 30.6250605178815 0.9821150386653752 665.879025227975 2.6620830761624426 57.341038327362384 10.90962152093935
0.9300000000000006 30.43473005441919 0.9621911071152756 654.408469125921 2.6144708445620486 56.3644011459386 10.715047681652116
0.9400000000000006 30.5112831758496 0.9353847893097118 638.4519034032578 2.5483575881442126 55.04771787695026 10.444701580644576
0.9500000000000006 30.83261094791185 0.9046394199901826 619.7344769579469 2.470896691861131 53.531546749142805 10.127711394576602
0.9600000000000006 31.354214250552303 0.8731154578501297 600.1589332379184 2.3899681533672794 51.96838373838008 9.79619775153912
0.9700000000000006 32.01595467779796 0.8438639496113964 581.6170738381701 2.3133900823722096 50.50779481800738 9.482083522344482
0.9800000000000006 32.74961973768921 0.8195316725205091 565.811332299871 2.2481759116140454 49.282523603363046 9.214079157983715
0.9900000000000007 33.486393806485346 0.8021245332869666 554.1028750907715 2.1999063459399313 48.396825760417 9.015121426358343
1.0000000000000007 34.16349163996094 0.7928531272858983 547.3993375609281 2.1722707211921977 47.91802171529948 8.900485258668937
1.0100000000000007 34.72937162488548 0.7920683650102154 546.0909117240953 2.166812149085101 47.87190474861049 8.876716056686101
1.0200000000000007 35.14726555723782 0.7992815204516539 550.0384875189283 2.1828904100552986 48.24226361362719 8.941441258413025
1.0300000000000007 35.396980244129466 0.8132610609206132 558.6124496678933 2.2178560052325436 48.97438333924608 9.08403223131764
1.0400000000000007 35.474891355757805 0.8322120808532043 570.7760080948091 2.2674040272684444 49.981996743774395 9.287019192928348
1.0500000000000007 35.39261209491041 0.8539836548565569 585.2030148683372 2.3260681450379543 51.15689856997999 9.528078841018173
1.0600000000000007 35.17450880445055 0.8762982734556246 600.4174642913971 2.387797980471696 52.380180994644405 9.782384796923315
1.0700000000000007 34.85450598468766 0.8969768131631524 614.940434227676 2.4465616163717527 53.53396792972457 10.025077843453374
1.0800000000000007 34.472527519712514 0.9141367799800184 627.4302144423651 2.4969146527520296 54.51251669975782 10.233617774955992
1.0900000000000007 34.07089648838971 0.9263482226950748 636.8026937250506 2.534483970776633 55.23166792675108 10.389800485586335
1.1000000000000008 33.69093953859302 0.9327329903945065 642.3215605770688 2.5563249629412033 55.6358211408329 10.481266939490649
1.1100000000000008 33.370006141600584 0.93300452324074 643.6512224144791 2.5611259293968995 55.7018897670853 10.502384999123944
1.1200000000000008 33.138984936493856 0.9274538050615977 640.8692202954848 2.5492483322993094 55.43998992192439 10.454452533713694
1.1300000000000008 33.020352895440766 0.9168872743617955 634.4388971598388 2.522606784421991 54.89093646402654 10.345238198126802
1.1400000000000008 33.02692572413058 0.9025112475551733 625.1468113607125 2.484410874631176 54.12093862360243 10.187929155103097
1.1500000000000008 33.16117814931321 0.8857974539120699 614.0125247864636 2.4387977680282917 53.2141090095549 9.999621015618498
1.1600000000000008 33.4152566014235 0.8683345188556837 602.1806470695459 2.3903969007256025 52.263609325715045 9.799510175900558
1.1700000000000008 33.77166019913872 0.8516792465821323 590.806235325668 2.34387051119319 51.36233613870939 9.606975893126958
1.1800000000000008 34.20459982635579 0.8372213805416244 580.9447460069804 2.3034742012853133 50.5940615759076 9.439737892564033
1.1900000000000008 34.682000977883455 0.8260712971095368 573.4567650190681 2.2726773014977333 50.02585690529642 9.312260276914202
1.2000000000000008 35.1680703525423 0.8189811137557221 568.9358448356404 2.2538757190398755 49.70247020401883 9.234540346340145
1.2100000000000009 35.62625858029934 0.8163016839313677 567.6651798539673 2.248219120236791 49.64310513379358 9.211379412368458
1.2200000000000009 36.02243359065646 0.8179733939264828 569.605828780502 2.2555631767521094 49.84080211049155 9.242180492486845
1.2300000000000009 36.32801353879543 0.8235504172580388 574.4160760168207 2.274545900250046 50.26436390659021 9.321263786576813
1.2400000000000009 36.52269264006476 0.8322623249360186 581.4985806008015 2.3027736172031936 50.86251065847205 9.438652161414986
1.2500000000000009 36.59652497057793 0.8430987761504536 590.0694940158278 2.337095220430774 51.56976892010795 9.581222294711571
1.260000000000001 36.55110354470747 0.8549076910141089 599.2419217577974 2.3739348597180436 52.3134402171751 9.734100097433725
1.270000000000001 36.39962697661708 0.8665017449733554 608.1151178433854 2.4096487791899373 53.02092510041717 9.882155354380178
1.280000000000001 36.165804639285305 0.8767635286200894 615.8606701562172 2.4408721248818157 53.62668274669768 10.011448137799842
1.290000000000001 35.88164655854655 0.8847409138157625 621.7976432589903 2.4648235807318732 54.07817100730303 10.1104933914554
1.300000000000001 35.584324067145246 0.8897231843635751 625.4500774200823 2.479540996985518 54.34024263666228 10.171233052334024
1.310000000000001 35.31242499465155 0.8912931856324384 626.5822332835902 2.4840292069802734 54.39765238342729 10.189636667878364
1.320000000000001 35.10195081432591 0.8893587104772323 625.2093110160964 2.478309408471099 54.25552275480012 10.165891871879762
1.330000000000001 34.98255598259552 0.8841480183427644 621.5837987886715 2.4633703809799607 53.93782863961581 10.104185399211264
1.340000000000001 34.97440095512425 0.8761792092010268 616.1599291371647 2.441029987784466 53.484145295829514 10.012112194505654
1.350000000000001 35.0860308699064 0.866201743426454 609.5406757185722 2.413724445556289 52.94506129274533 9.899789556162501
1.360000000000001 35.313490331389914 0.855121451888369 602.4131767449768 2.3842479428873258 52.37676584786 9.77877310529827
1.370000000000001 35.64081856881299 0.8439127843301488 595.4792876210154 2.355470149134769 51.83537723821631 9.660887270014172
1.380000000000001 36.041856223125606 0.8335262980774001 589.388108388364 2.33005931394156 51.371569336945726 9.557086269256732
1.390000000000001 36.483164907646014 0.8248006812316646 584.6768119829134 2.31023725320654 51.02599834975055 9.476453349651244
1.400000000000001 36.92772355122794 0.8183886598351044 581.7250029862081 2.29758812284983 50.825930284114406 9.425425467101064
1.410000000000001 37.33896389927565 0.8147030879139869 580.7262952359838 2.292936628948901 50.78332596278526 9.407308502487348
1.420000000000001 37.68471817133378 0.8138817788607735 581.6789729440943 2.2963050115030104 50.89449365854008 9.422113748584938
1.430000000000001 37.94058027580533 0.8157850446273098 584.3957014544237 2.306948476436528 51.14125654680546 9.466716248466561
1.440000000000001 38.09236375064873 0.8200177683029306 588.5304334356513 2.323462622625656 51.49344513362378 9.535306032877537
1.450000000000001 38.137349686002906 0.8259765895377633 593.6191105851025 2.3439490166605825 51.91240286327595 9.620072276007072
1.460000000000001 38.08425623770022 0.8329142299142349 599.1296165454596 2.3662206952593428 52.35511826565347 9.71204612322364
1.470000000000001 37.95193875448223 0.8400162138062655 604.5157753797968 2.388025597995634 52.77855297764412 9.802012805417272
1.480000000000001 37.767020173072154 0.8464820659141532 609.2700557880331 2.407265582443263 53.14374495156829 9.881402573712265
1.490000000000001 37.56075127515791 0.8516031468159886 612.9700249176101 2.422190336249405 53.419305488247346 9.943077625763246
1.500000000000001 37.365480874976924 0.854827175091259 615.314429042704 2.431548533605951 53.584010954265274 9.981943127641411
1.5100000000000011 37.2111552582715 0.8558046084672135 616.1459668810282 2.434683899572274 53.62829239078543 9.995332258318193
1.5200000000000011 37.12221139176758 0.8544174203875325 615.4592335278065 2.43156916016364 53.55453687437249 9.983141392821292
1.5300000000000011 37.11523071415607 0.8507809603011331 613.3937946648956 2.4227779040847164 53.376238617145646 9.947714147162836
1.5400000000000011 37.197537201941095 0.8452217215256637 610.2137720064205 2.4093998218310935 53.116138914061 9.89349669607162
1.5500000000000012 37.366878051454606 0.8382377577414761 606.2765499531132 2.392910635773336 52.803587945283354 9.826512817503364
