# Level force for
# start: 0.0, 0.0, 29.763125000000002
# center: 0.0, 0.0, 31.18041666666667
# end: 0.0, 0.0, 32.59770833333334
# number of nodes: 2571
# as part of NoSlip3D_structure
# time Fx Fy Fz Mx My Mz 
0.01 0.0 0.0 0.0 0.0 0.0 0.0
0.02 4.4376655089339945 -1.5724144408701186 -44.41954828062876 -6.985391830431396 -3.441879752899061 -2.7141486983871
0.03 10.399595446136797 -3.7022609126974415 -104.57427872003613 -16.44510054598667 -8.10406389659071 -6.392033579168007
0.04 17.324250437349157 -6.166450721931687 -174.16421020130213 -27.3885570744402 -13.500180143478502 -10.64694026456981
0.05 24.572337286764885 -8.720456630088131 -246.28435638781366 -38.72997859804133 -19.097014774464867 -15.05665343461869
0.060000000000000005 31.493461964949578 -11.122663326686673 -314.1112391056103 -49.3964096181265 -24.366530990836967 -19.204053047353415
0.07 37.47322447976313 -13.156780800256298 -371.5376101433719 -58.427531782932476 -28.83434194228919 -22.716007960334906
0.08 41.983263860969366 -14.650797750809343 -413.70786202856596 -65.05983807494874 -32.1211442672706 -25.29612043854049
0.09 44.6320122628206 -15.490936449522083 -437.4120937162177 -68.78857088628827 -33.973932859368496 -26.748733138575318
0.09999999999999999 45.20951478281682 -15.629594166577606 -441.30950507080826 -69.40282606002172 -34.28452918698601 -26.99240775676258
0.10999999999999999 43.717427066469185 -15.086741357082424 -425.9679259168958 -66.9917611854115 -33.09400334843943 -26.062104492648423
0.11999999999999998 40.37562295002611 -13.945025239918404 -393.72355483739375 -61.92255529865899 -30.58285172149035 -24.100386642206885
0.12999999999999998 35.60110343248189 -12.33918359429893 -348.38159306140346 -54.793370017131465 -27.04822418333344 -21.33900752828631
0.13999999999999999 29.959602644400146 -10.44105068367719 -294.79262540055197 -46.36678059513112 -22.87074080880108 -18.073087993365643
0.15 24.096406718984234 -8.4417595217741 -238.35008384060498 -37.49079282401651 -18.47452674866503 -14.630660630408359
0.16 18.657204578738995 -6.532903253800944 -184.4598111446515 -29.015457686394733 -14.28470945351463 -11.3406230207204
0.17 14.211330684049635 -4.888568336348698 -138.03321487855277 -21.713176305463815 -10.686741703266748 -8.502133723027764
0.18000000000000002 11.188921980990074 -3.6498331998574516 -103.05087520074518 -16.21006492617884 -7.991526828502315 -6.358199202202672
0.19000000000000003 9.83972429893622 -2.9131208162833775 -82.23445300482088 -12.934336009053919 -6.409497811205942 -5.075712064758019
0.20000000000000004 10.217087565885413 -2.723301827784019 -76.85249491187362 -12.085728422903255 -6.035663983027421 -4.733485891458989
0.21000000000000005 12.185538356803853 -3.0720134097058267 -86.671673185729 -13.627804643862936 -6.8464243839967285 -5.31906830494174
0.22000000000000006 15.448488299270473 -3.900958345195612 -110.05071666436048 -17.30269188956892 -8.707763772168981 -6.734197279513339
0.23000000000000007 19.589245855833667 -5.109785515806063 -144.16102487889208 -22.665750127752524 -11.393307940062018 -8.808013153156299
0.24000000000000007 24.120515346922936 -6.567451595828334 -185.30714932798762 -29.135951216080958 -14.610083658875414 -11.316405162775174
0.25000000000000006 28.536931052653713 -8.12591636274778 -229.31247633548543 -36.056518029061806 -18.029171691918826 -14.00540276211612
0.26000000000000006 32.36675068206726 -9.634774847025902 -271.9312673294089 -42.75971487693019 -21.318243558103703 -16.61622972836166
0.2700000000000001 35.219152008767985 -10.955386395064988 -309.2477120902013 -48.62960324887903 -24.172945958198767 -18.909600886773745
0.2800000000000001 36.82349092904922 -11.973277644548997 -338.0257000620393 -53.15705613521296 -26.344297705325197 -20.68706417449961
0.2900000000000001 37.056386682650036 -12.607709689598469 -355.9791650399001 -55.98229522900401 -27.65974690771891 -21.807507746402116
0.3000000000000001 35.95330987976439 -12.817651214088759 -361.9414674555403 -56.92155990040461 -28.03608613936024 -22.197593607238108
0.3100000000000001 33.702098947849755 -12.603753524230386 -355.9225121235971 -55.976129769182506 -27.483326120589766 -21.85541044918028
0.3200000000000001 30.61786507626091 -12.006365828845654 -339.05317808548034 -53.3236266747957 -26.099425916068608 -20.847348206244174
0.3300000000000001 27.102508013383552 -11.09983853752481 -313.42724303998824 -49.29318953714883 -24.05680371558512 -19.29877688633467
0.34000000000000014 23.59333869546794 -9.983968389506698 -281.8601501232264 -44.32755835348736 -21.582218986822625 -17.37968713589748
0.35000000000000014 20.508361322243864 -8.773399185983052 -247.59108603389205 -38.936226912792435 -18.93236789426139 -15.286785838200224
0.36000000000000015 18.19615042940012 -7.586150099759504 -213.95905678668896 -33.644485460498615 -16.36776053404005 -13.223955743104526
0.37000000000000016 16.896469616723746 -6.53237690077432 -184.08476095413636 -28.94336325917712 -14.127587287455059 -11.382856942308067
0.38000000000000017 16.716840354884013 -5.70441645680656 -160.58805411060686 -25.24515876671582 -12.407949236673563 -9.925560933855479
0.3900000000000002 17.626753711110396 -5.168982251580507 -145.3659798349222 -22.848492148622274 -11.345385355546233 -8.970735847832138
0.4000000000000002 19.46894690393027 -4.962165331883088 -139.44936718259765 -21.915717261470512 -11.00698804832548 -8.584531275579533
0.4100000000000002 21.984766866322488 -5.087550578500251 -142.94764405082552 -22.46421427082064 -11.387649440398565 -8.776814171799318
0.4200000000000002 24.849756767382132 -5.517435475166947 -155.0827209318755 -24.37170052696416 -12.414321742245722 -9.50285627516323
0.4300000000000002 27.714269538795683 -6.196980966482754 -174.30436546483847 -27.394369012794606 -13.95645933310945 -10.670065887839918
0.4400000000000002 30.244846905246227 -7.050633752360502 -198.47230072533677 -31.195531109220866 -15.841366680001931 -12.148880534388706
0.45000000000000023 32.161816777606866 -7.99019647810896 -225.0847620402344 -35.381576381041995 -17.872741438108402 -13.786604682962956
0.46000000000000024 33.2694002757218 -8.923688564729304 -251.52996470700137 -39.54154376528838 -19.85051114658995 -15.422760494841889
0.47000000000000025 33.47537663646299 -9.764136583030766 -275.33595049762744 -43.286443130150765 -21.590029894579978 -16.90445069689561
0.48000000000000026 32.79833549975886 -10.437451347861643 -294.3955961211482 -46.28467184771783 -22.938842030330317 -18.10030612308517
0.49000000000000027 31.36172080911819 -10.888748463654723 -307.14694010809416 -48.29040227438464 -23.789530491522413 -18.911791239496658
0.5000000000000002 29.37537266277486 -11.086554152058671 -312.6940301275057 -49.162608106285376 -24.087595016303602 -19.28093797775633
0.5100000000000002 27.10701965424157 -11.024621779113062 -310.85969216727256 -48.87337541298538 -23.833863325192972 -19.19394200373737
0.5200000000000002 24.847243929772958 -10.721344377565856 -302.1683597662882 -47.505202775977295 -23.08146182829905 -18.68046697640541
0.5300000000000002 22.87291056331514 -10.216812653810994 -287.7637533883219 -45.238046678588695 -21.927955220129334 -17.808895204245154
0.5400000000000003 21.413689035498024 -9.56805834951366 -269.27213147782936 -42.327798006567484 -20.503663868936602 -16.678145269131893
0.5500000000000003 20.6260655141973 -8.842903472334505 -248.6265027103272 -39.078614902069106 -18.9575066204851 -15.40697037991022
0.5600000000000003 20.577905931121517 -8.11309221549675 -227.8702054916078 -35.81200957865727 -17.441873244780094 -14.121856959907076
0.5700000000000003 21.244931518405785 -7.447377425291572 -208.95937642291327 -32.83576274357372 -16.0980241690296 -12.944734575591323
0.5800000000000003 22.518735931641817 -6.905233025030036 -193.58302525073458 -30.41561210991552 -15.043371097105851 -11.981676260090888
0.5900000000000003 24.224533319544477 -6.531714746973879 -183.01687317001256 -28.752256661529422 -14.361724763887423 -11.313619373956872
0.6000000000000003 26.145770162735737 -6.353930767268949 -178.02312585896777 -27.96559189468042 -14.097259759742634 -10.989896027553854
0.6100000000000003 28.052067152089016 -6.379361577710883 -178.80340602002138 -28.087310748325457 -14.252533988419092 -11.025057770920162
0.6200000000000003 29.72712779863284 -6.596067457811799 -185.00669552798192 -29.062160791115726 -14.790530683463974 -11.399134933832375
0.6300000000000003 30.993309680391306 -6.974760543731121 -195.78886417156392 -30.757316298184342 -15.64029618015229 -12.061144603076496
0.6400000000000003 31.730253050963974 -7.472349327491302 -209.91567962418625 -32.978590097896834 -16.705440931531335 -12.935358751897967
0.6500000000000004 31.885931732120127 -8.036628582391756 -225.89753243364677 -35.49163204605807 -17.87456615484991 -13.929607068140017
0.6600000000000004 31.47910708667994 -8.611601808552967 -242.14170630217765 -38.04588515669951 -19.032518845695492 -14.944740570380972
0.6700000000000004 30.593346772681087 -9.14291148882821 -257.10707581286994 -40.39892082080898 -20.071379710587458 -15.884309976729543
0.6800000000000004 29.363689112182747 -9.582850487707702 -269.44660559313064 -42.33885248082089 -20.900168392556463 -16.66353821867489
0.6900000000000004 27.957825310615586 -9.894527148714971 -278.12485097878755 -43.702815244909885 -21.452427219431218 -17.21677657516272
0.7000000000000004 26.554360371238012 -10.05482839121683 -282.50059431536044 -44.389960429112236 -21.69109599512342 -17.502809584368435
0.7100000000000004 25.320989922949533 -10.055941142600993 -282.3684748661281 -44.367999460325464 -21.610376315360526 -17.507605358244398
0.7200000000000004 24.395283917907115 -9.90539893403115 -277.9575919441811 -43.672980547619 -21.234578525292886 -17.244367849033615
0.7300000000000004 23.870359049358427 -9.624642883446963 -269.8892344260553 -42.40263683099003 -20.614240105591705 -16.75100554017923
0.7400000000000004 23.787000270848036 -9.246374425537812 -259.0996087517805 -40.704230714105904 -19.82002577934968 -16.085376821974865
0.7500000000000004 24.132613673512044 -8.81095714181994 -246.73651552573511 -38.75830183335626 -18.935093107711012 -15.318866868949225
0.7600000000000005 24.84666084785482 -8.362261484531814 -234.04096372526158 -36.76004696096827 -18.04671406381509 -14.528984946529992
0.7700000000000005 25.831365170224785 -7.943357069025456 -222.2256296015411 -34.900204313371006 -17.23796399361359 -13.79173175873548
0.7800000000000005 26.965860098865562 -7.592493449410011 -212.36180523932487 -33.34727393333642 -16.580234856117368 -13.174476419370269
0.7900000000000005 28.121806150207725 -7.339712415203581 -205.28512189878853 -32.23269105534883 -16.127217827460854 -12.729994015758116
0.8000000000000005 29.178480152860928 -7.204389339291237 -201.5280564539982 -31.640211685141935 -15.910829558372317 -12.492174594960112
0.8100000000000005 30.03564514635149 -7.193904058129528 -201.28430357799542 -31.60030972631167 -15.939358328340724 -12.473728631190358
0.8200000000000005 30.62293412300219 -7.303497945712037 -204.40683017444968 -32.08987118465049 -16.197885259680028 -12.666007676921122
0.8300000000000005 30.905128537762465 -7.51728648153502 -210.4381762623721 -33.036959153900135 -16.650837595432897 -13.040855042303741
0.8400000000000005 30.882898579702992 -7.810281105880524 -218.66856096931167 -34.32995172959585 -17.246311254374874 -13.554211812262741
0.8500000000000005 30.58957507015841 -8.151170540417569 -228.2149912521365 -35.82998246242733 -17.921697537417245 -14.151051146097322
0.8600000000000005 30.084580769788396 -8.505574832933943 -238.112897110394 -37.38535089233894 -18.61002165362008 -14.771111083075493
0.8700000000000006 29.444572720137558 -8.839449097043268 -247.41106024493848 -38.846451176986065 -19.24637474698382 -15.354846904041743
0.8800000000000006 28.753560103238343 -9.122287871298262 -255.26073421079622 -40.07978719767143 -19.773844358498653 -15.849028549184043
0.8900000000000006 28.093198205740986 -9.32985440061013 -260.99083196831646 -40.979796977439754 -20.148420337117553 -16.211472306583723
0.9000000000000006 27.53436985496765 -9.446192692057195 -264.1627522380254 -41.47747560707196 -20.342474549381752 -16.414499730900758
0.9100000000000006 27.130881962724665 -9.464754918255998 -264.6006370732164 -41.545134910670455 -20.34655953410182 -16.44685718548237
0.9200000000000006 26.915742779752225 -9.388587218566812 -262.3953649898913 -41.19703344104322 -20.169437626279517 -16.31398768501605
0.9300000000000006 26.90007122203569 -9.229602780287603 -257.8831459167116 -40.486013180347385 -19.83641281810221 -16.036708088132194
0.9400000000000006 27.074556898902095 -9.007016889438654 -251.60194926732282 -39.49665041746658 -19.386209480413868 -15.648490823041888
0.9500000000000006 27.412758543892473 -8.7451872811494 -244.23093442659965 -38.33573428544665 -18.86673233209265 -15.191679454621564
0.9600000000000006 27.87570684513618 -8.47104473244626 -236.51943224546963 -37.12110138433716 -18.330160829319603 -14.713045599538578
0.9700000000000006 28.41707747465837 -8.21140386044771 -229.2126996103068 -35.96996218465409 -17.82786087847457 -14.259142121269628
0.9800000000000006 28.988301775575362 -7.990410619238385 -222.9816338865027 -34.987848701733164 -17.40559694364964 -13.871903691084107
0.9900000000000007 29.543116210033304 -7.827366247243394 -218.36291346613083 -34.25919991689626 -17.099480841827585 -13.58490025795988
1.0000000000000007 30.041213425291364 -7.735116247427868 -215.71472988956833 -33.840396997069156 -16.93300575082564 -13.420567211256627
1.0100000000000007 30.450831544309736 -7.719139384279393 -215.19154767716657 -33.75578901934624 -16.91539956658861 -13.388626855076279
1.0200000000000007 30.750270683898655 -7.777384069244372 -216.73935901205962 -33.996940225020744 -17.041396406766438 -13.485792042357868
1.0300000000000007 30.928471195810793 -7.900821719228939 -220.1108910825784 -34.52501427432844 -17.292392065957298 -13.69671648060881
1.0400000000000007 30.984694124680654 -8.074668311741723 -224.89835348179236 -35.27591754590856 -17.63880326543759 -13.996042045372793
1.0500000000000007 30.927624813354086 -8.280067566314653 -230.57978762756687 -36.16758233088251 -18.04336957557944 -14.351291643497085
1.0600000000000007 30.774002544702547 -8.496097884360179 -236.5739724896782 -37.108598260842896 -18.465036818197365 -14.726294117415785
1.0700000000000007 30.546942132202116 -8.701871595043169 -242.298284809225 -38.00731111794462 -18.8630297291251 -15.084789793246504
1.0800000000000007 30.27405867609079 -8.878526384415924 -247.22390042965966 -38.780506658101025 -19.200718333793183 -15.393866460663304
1.0900000000000007 29.98546964586699 -9.010922358395163 -250.92324429865926 -39.360878314938965 -19.44891796278255 -15.626909044854054
1.1000000000000008 29.71173145004387 -9.08889864500092 -253.10557216468743 -39.70263080332791 -19.588332658066896 -15.76580759047597
1.1100000000000008 29.481759740459445 -9.107986220798564 -253.6378857816934 -39.784778333692735 -19.610944221193854 -15.802251302934554
1.1200000000000008 29.32079562584878 -9.069541392272836 -252.54990359979513 -39.611935151478335 -19.52025965628286 -15.738031600831611
1.1300000000000008 29.248486179711847 -8.98032725728991 -250.02337548810732 -39.21264294868313 -19.330439509664423 -15.584374679927778
1.1400000000000008 29.27727621695519 -8.851576712210775 -246.3675112976625 -38.635511725550884 -19.06444836041668 -15.360412726954443
1.1500000000000008 29.41119905678741 -8.697704220724846 -241.98350896083554 -37.94364363409383 -18.751440369015523 -15.090984415565938
1.1600000000000008 29.645253597513864 -8.534767989867408 -237.32207484051432 -37.20795091684034 -18.423670439671724 -14.804004203937748
1.1700000000000008 29.965508001528654 -8.378860990846952 -232.8383004856849 -36.50005509725044 -18.113250998679835 -14.527670334832415
1.1800000000000008 30.350014216160478 -8.244583868910196 -228.94830444634115 -35.885461074977165 -17.849075386404763 -14.287784493133717
1.1900000000000008 30.770541307050667 -8.143740254542925 -225.99166834968113 -35.417641525952895 -17.654197644403027 -14.10542968342017
1.2000000000000008 31.195031470959574 -8.084364736616335 -224.20295108695296 -35.1335483331127 -17.54390045607927 -13.995208915724984
1.2100000000000009 31.590587873213913 -8.07016248672009 -223.69454414439562 -35.05090853271814 -17.524607406045742 -13.964184238905583
1.2200000000000009 31.926718964668552 -8.10038597266389 -224.4519447596 -35.16747536400825 -17.593703492786158 -14.011578264881585
1.2300000000000009 32.17848902632582 -8.170125254904402 -226.34129805279954 -35.46221086332891 -17.74023584828584 -14.129230499344404
1.2400000000000009 32.32922670707516 -8.271001550034292 -229.12788789534497 -35.898193895406195 -17.946383308509127 -14.30273052024193
1.2500000000000009 32.372421823652985 -8.392125636502964 -232.50330340626138 -36.42689477289041 -18.189514347557957 -14.513084121218114
1.260000000000001 32.31260607939125 -8.521251203762503 -236.11827852295255 -36.993344383997744 -18.444605426768074 -14.738730550661538
1.270000000000001 32.16503738389919 -8.645996901037957 -239.61781721534152 -37.541664060176906 -18.686765250038093 -14.95770442730754
1.280000000000001 31.954189440442896 -8.755015819101136 -242.67516270251915 -38.02041434255599 -18.893616031584628 -15.149731233600843
1.290000000000001 31.711186099573766 -8.839008909774805 -245.02144367140681 -38.387263412534665 -19.047309371802275 -15.298062272125287
1.300000000000001 31.47045671840188 -8.891496718013702 -246.46839236407345 -38.612565152917455 -19.136001528495974 -15.39088901047424
1.310000000000001 31.26599188118397 -8.909285867881382 -246.92231189512506 -38.68155937748546 -19.154674313002204 -15.422222782311312
1.320000000000001 31.127613526819452 -8.892606067612057 -246.38838657977075 -38.595051158322434 -19.105256662129595 -15.392182115538445
1.330000000000001 31.077751996999467 -8.844926035004413 -244.96538878846144 -38.36857805063256 -18.996075543155996 -15.306688744865633
1.340000000000001 31.12902146672296 -8.772460040699487 -242.8317518772816 -38.030217612988935 -18.840721040723135 -15.176629228570842
1.350000000000001 31.282983841588344 -8.683454757181849 -240.2247420294767 -37.617308488848046 -18.65647139877531 -15.016584425319087
1.360000000000001 31.53015441361902 -8.58731611933438 -237.41504554858997 -37.17245058747444 -18.462449714760524 -14.843272992736871
1.370000000000001 31.851267978127996 -8.493668470445677 -234.67940887630994 -36.73919829004444 -18.277703683161022 -14.673863931080934
1.380000000000001 32.21962884276251 -8.411439030759492 -232.2740274695194 -36.357872210145615 -18.119397287843007 -14.524322079293759
1.390000000000001 32.604250641579256 -8.348049976427529 -230.41118089620528 -36.06188290384613 -18.00127964548791 -14.407946748617555
1.400000000000001 32.97339801390893 -8.3087889273236 -229.2411799535791 -35.87489017731394 -17.93256096316047 -14.334235072690229
1.410000000000001 33.29810817784589 -8.296410521146942 -228.8410846411455 -35.80902689919086 -17.91728185830649 -14.308164191283652
1.420000000000001 33.55529460536718 -8.310994986975157 -229.21094108306167 -35.864306905222776 -17.954206332366372 -14.329933547389178
1.430000000000001 33.73004724200349 -8.350060932596602 -230.2775310527507 -36.02921454105466 -18.037217598292308 -14.395172660195405
1.440000000000001 33.81697050439551 -8.408927449099439 -231.9049093479176 -36.282363408320535 -18.156156183394543 -14.495572702021374
1.450000000000001 33.82035465071392 -8.481255488138975 -233.91040191974574 -36.59501406187264 -18.29799126801911 -14.619864997566806
1.460000000000001 33.75328795351234 -8.559723542148175 -236.08427341408793 -36.93416568458087 -18.448207009096365 -14.755039956130084
1.470000000000001 33.63581936285494 -8.636771616645708 -238.21101615838754 -37.26590813515482 -18.59224579613111 -14.887666631256051
1.480000000000001 33.49244386154942 -8.705328242878451 -240.0901540994295 -37.558693946119554 -18.716884987039982 -15.005196598273951
